{
  "AcquisitionMatrixPE": 64,
  "AcquisitionNumber": 1,
  "AcquisitionTime": "19:28:38.210000",
  "BandwidthPerPixelPhaseEncode": 19.531,
  "BaseResolution": 64,
  "CoilString": "C:HEA;HEP",
  "ConversionSoftware": "dcm2niix",
  "ConversionSoftwareVersion": "v1.0.20190902",
  "DerivedVendorReportedEchoSpacing": 0.00080001,
  "DeviceSerialNumber": "26099",
  "DwellTime": 5.3e-06,
  "EchoTime": 0.0548,
  "EffectiveEchoSpacing": 0.00080001,
  "FlipAngle": 75,
  "ImageComments": "Unaliased_MB4_PE3_LB_SENSE1",
  "ImageOrientationPatientDICOM": [1, 2e-16, 0, -2e-16, 0.977046, -0.21303],
  "ImageType": [
    "ORIGINAL",
    "PRIMARY",
    "M",
    "MB",
    "ND",
    "MOSAIC"
],
  "ImagingFrequency": 63.6394,
  "InPlanePhaseEncodingDirectionDICOM": "COL",
  "InstitutionAddress": "Bedford_Way_26_London_London_GB_WC1H_0AP",
  "InstitutionName": "University_College",
  "InstitutionalDepartmentName": "Department",
  "MRAcquisitionType": "2D",
  "MagneticFieldStrength": 1.5,
  "Manufacturer": "Siemens",
  "ManufacturersModelName": "Avanto",
  "Modality": "MR",
  "MultibandAccelerationFactor": 4,
  "PartialFourier": 1,
  "PatientPosition": "HFS",
  "PercentPhaseFOV": 100,
  "PhaseEncodingDirection": "j-",
  "PhaseEncodingSteps": 64,
  "PhaseResolution": 1,
  "PixelBandwidth": 1474,
  "ProcedureStepDescription": "ucl_bbk_Jeremy",
  "ProtocolName": "EcL4-3.2m-40-1474-1s-55e",
  "PulseSequenceDetails": "%CustomerSeq%_cmrr_mbep2d_bold",
  "ReceiveCoilName": "32Ch_Head",
  "ReconMatrixPE": 64,
  "RepetitionTime": 1,
  "SAR": 0.0416709,
  "ScanOptions": "FS",
  "ScanningSequence": "EP",
  "SequenceName": "epfid2d1_64",
  "SequenceVariant": "SK_SS",
  "SeriesDescription": "EcL4-3.2m-40-1474-1s-55e",
  "SeriesNumber": 8,
  "ShimSetting": [148, -8, 365, 732, 125, 728, -407, -49],
  "SliceThickness": 3.2,
  "SliceTiming": [0, 0.7025, 0.4025, 0.1, 0.8025, 0.5025, 0.2, 0.9025, 0.6025, 0.3, 0, 0.7025, 0.4025, 0.1, 0.8025, 0.5025, 0.2, 0.9025, 0.6025, 0.3, 0, 0.7025, 0.4025, 0.1, 0.8025, 0.5025, 0.2, 0.9025, 0.6025, 0.3, 0, 0.7025, 0.4025, 0.1, 0.8025, 0.5025, 0.2, 0.9025, 0.6025, 0.3],
  "SoftwareVersions": "syngo_MR_B17",
  "SpacingBetweenSlices": 3.2,
  "StationName": "MRC26099",
  "TaskName": "citizenfour",
  "CogAtlasID": "http://www.cognitiveatlas.org/task/id/tsk_jbg1oF4D9OTkO/",
  "TotalReadoutTime": 0.0504006,
  "TxRefAmp": 225.219,
  "dcmmeta_affine": [
    [-3.203125, -6.40624994052057e-16, 1.3633945551145665e-16, 102.5],
    [-6.40624994052057e-16, 3.129599094390869, -0.6816972494125366, -73.16757202148438],
    [0.0, 0.682362973690033, 3.1265459060668945, -54.905399322509766],
    [0.0, 0.0, 0.0, 1.0]
],
  "dcmmeta_reorient_transform": [
    [0.0, -1.0, 0.0, 63.0],
    [1.0, 0.0, 0.0, 0.0],
    [0.0, 0.0, 1.0, 0.0],
    [0.0, 0.0, 0.0, 1.0]
],
  "dcmmeta_shape": [64, 64, 40, 1124],
  "dcmmeta_slice_dim": 2,
  "dcmmeta_version": 0.6,
  "global": {
    "const": {
      "AcquisitionMatrix": [64, 0, 0, 64],
      "AngioFlag": "N",
      "BitsAllocated": 16,
      "BitsStored": 12,
      "Columns": 448,
      "EchoNumbers": 1,
      "EchoTime": 54.8,
      "EchoTrainLength": 1,
      "FlipAngle": 75.0,
      "HighBit": 11,
      "ImageOrientationPatient": [1.0, 2e-16, 0.0, -2e-16, 0.97704557315049, -0.2130303921675],
      "ImagePositionPatient": [-717.5, -724.88019530225, 119.09715870561],
      "ImageType": [
        "ORIGINAL",
        "PRIMARY",
        "M",
        "MB",
        "ND",
        "MOSAIC"
],
      "ImagedNucleus": "1H",
      "ImagingFrequency": 63.639429,
      "InPlanePhaseEncodingDirection": "COL",
      "MRAcquisitionType": "2D",
      "MagneticFieldStrength": 1.5,
      "Manufacturer": "SIEMENS",
      "ManufacturerModelName": "Avanto",
      "Modality": "MR",
      "NumberOfAverages": 1.0,
      "NumberOfPhaseEncodingSteps": 64,
      "PercentPhaseFieldOfView": 100.0,
      "PercentSampling": 100.0,
      "PerformedProcedureStepStartTime": "173549.671000",
      "PhotometricInterpretation": "MONOCHROME2",
      "PixelBandwidth": 1474.0,
      "PixelRepresentation": 0,
      "PixelSpacing": [3.203125, 3.203125],
      "ProtocolName": "EcL4-3.2m-40-1474-1s-55e",
      "RepetitionTime": 1000.0,
      "Rows": 448,
      "SAR": 0.04167092819412,
      "SamplesPerPixel": 1,
      "ScanOptions": "FS",
      "ScanningSequence": "EP",
      "SequenceName": "epfid2d1_64",
      "SequenceVariant": [
        "SK",
        "SS"
],
      "SeriesDescription": "EcL4-3.2m-40-1474-1s-55e",
      "SeriesNumber": 8,
      "SeriesTime": "192917.484000",
      "SliceLocation": -38.058160591564,
      "SliceThickness": 3.2000000476837,
      "SmallestImagePixelValue": 0,
      "SoftwareVersions": "syngo MR B17",
      "SpacingBetweenSlices": 3.2000000884901,
      "SpecificCharacterSet": "ISO_IR 100",
      "StudyID": "1",
      "StudyTime": "173549.484000",
      "TransmitCoilName": "Body",
      "VariableFlipAngleFlag": "N",
      "WindowCenterWidthExplanation": "Algo1",
      "dBdt": 0.0},
    "slices": {}
  },
  "time": {
    "samples": {
      "AcquisitionNumber": [1, 2, 3, 4, 5, 6, 7, 8, 9, 10, 11, 12, 13, 14, 15, 16, 17, 18, 19, 20, 21, 22, 23, 24, 25, 26, 27, 28, 29, 30, 31, 32, 33, 34, 35, 36, 37, 38, 39, 40, 41, 42, 43, 44, 45, 46, 47, 48, 49, 50, 51, 52, 53, 54, 55, 56, 57, 58, 59, 60, 61, 62, 63, 64, 65, 66, 67, 68, 69, 70, 71, 72, 73, 74, 75, 76, 77, 78, 79, 80, 81, 82, 83, 84, 85, 86, 87, 88, 89, 90, 91, 92, 93, 94, 95, 96, 97, 98, 99, 100, 101, 102, 103, 104, 105, 106, 107, 108, 109, 110, 111, 112, 113, 114, 115, 116, 117, 118, 119, 120, 121, 122, 123, 124, 125, 126, 127, 128, 129, 130, 131, 132, 133, 134, 135, 136, 137, 138, 139, 140, 141, 142, 143, 144, 145, 146, 147, 148, 149, 150, 151, 152, 153, 154, 155, 156, 157, 158, 159, 160, 161, 162, 163, 164, 165, 166, 167, 168, 169, 170, 171, 172, 173, 174, 175, 176, 177, 178, 179, 180, 181, 182, 183, 184, 185, 186, 187, 188, 189, 190, 191, 192, 193, 194, 195, 196, 197, 198, 199, 200, 201, 202, 203, 204, 205, 206, 207, 208, 209, 210, 211, 212, 213, 214, 215, 216, 217, 218, 219, 220, 221, 222, 223, 224, 225, 226, 227, 228, 229, 230, 231, 232, 233, 234, 235, 236, 237, 238, 239, 240, 241, 242, 243, 244, 245, 246, 247, 248, 249, 250, 251, 252, 253, 254, 255, 256, 257, 258, 259, 260, 261, 262, 263, 264, 265, 266, 267, 268, 269, 270, 271, 272, 273, 274, 275, 276, 277, 278, 279, 280, 281, 282, 283, 284, 285, 286, 287, 288, 289, 290, 291, 292, 293, 294, 295, 296, 297, 298, 299, 300, 301, 302, 303, 304, 305, 306, 307, 308, 309, 310, 311, 312, 313, 314, 315, 316, 317, 318, 319, 320, 321, 322, 323, 324, 325, 326, 327, 328, 329, 330, 331, 332, 333, 334, 335, 336, 337, 338, 339, 340, 341, 342, 343, 344, 345, 346, 347, 348, 349, 350, 351, 352, 353, 354, 355, 356, 357, 358, 359, 360, 361, 362, 363, 364, 365, 366, 367, 368, 369, 370, 371, 372, 373, 374, 375, 376, 377, 378, 379, 380, 381, 382, 383, 384, 385, 386, 387, 388, 389, 390, 391, 392, 393, 394, 395, 396, 397, 398, 399, 400, 401, 402, 403, 404, 405, 406, 407, 408, 409, 410, 411, 412, 413, 414, 415, 416, 417, 418, 419, 420, 421, 422, 423, 424, 425, 426, 427, 428, 429, 430, 431, 432, 433, 434, 435, 436, 437, 438, 439, 440, 441, 442, 443, 444, 445, 446, 447, 448, 449, 450, 451, 452, 453, 454, 455, 456, 457, 458, 459, 460, 461, 462, 463, 464, 465, 466, 467, 468, 469, 470, 471, 472, 473, 474, 475, 476, 477, 478, 479, 480, 481, 482, 483, 484, 485, 486, 487, 488, 489, 490, 491, 492, 493, 494, 495, 496, 497, 498, 499, 500, 501, 502, 503, 504, 505, 506, 507, 508, 509, 510, 511, 512, 513, 514, 515, 516, 517, 518, 519, 520, 521, 522, 523, 524, 525, 526, 527, 528, 529, 530, 531, 532, 533, 534, 535, 536, 537, 538, 539, 540, 541, 542, 543, 544, 545, 546, 547, 548, 549, 550, 551, 552, 553, 554, 555, 556, 557, 558, 559, 560, 561, 562, 563, 564, 565, 566, 567, 568, 569, 570, 571, 572, 573, 574, 575, 576, 577, 578, 579, 580, 581, 582, 583, 584, 585, 586, 587, 588, 589, 590, 591, 592, 593, 594, 595, 596, 597, 598, 599, 600, 601, 602, 603, 604, 605, 606, 607, 608, 609, 610, 611, 612, 613, 614, 615, 616, 617, 618, 619, 620, 621, 622, 623, 624, 625, 626, 627, 628, 629, 630, 631, 632, 633, 634, 635, 636, 637, 638, 639, 640, 641, 642, 643, 644, 645, 646, 647, 648, 649, 650, 651, 652, 653, 654, 655, 656, 657, 658, 659, 660, 661, 662, 663, 664, 665, 666, 667, 668, 669, 670, 671, 672, 673, 674, 675, 676, 677, 678, 679, 680, 681, 682, 683, 684, 685, 686, 687, 688, 689, 690, 691, 692, 693, 694, 695, 696, 697, 698, 699, 700, 701, 702, 703, 704, 705, 706, 707, 708, 709, 710, 711, 712, 713, 714, 715, 716, 717, 718, 719, 720, 721, 722, 723, 724, 725, 726, 727, 728, 729, 730, 731, 732, 733, 734, 735, 736, 737, 738, 739, 740, 741, 742, 743, 744, 745, 746, 747, 748, 749, 750, 751, 752, 753, 754, 755, 756, 757, 758, 759, 760, 761, 762, 763, 764, 765, 766, 767, 768, 769, 770, 771, 772, 773, 774, 775, 776, 777, 778, 779, 780, 781, 782, 783, 784, 785, 786, 787, 788, 789, 790, 791, 792, 793, 794, 795, 796, 797, 798, 799, 800, 801, 802, 803, 804, 805, 806, 807, 808, 809, 810, 811, 812, 813, 814, 815, 816, 817, 818, 819, 820, 821, 822, 823, 824, 825, 826, 827, 828, 829, 830, 831, 832, 833, 834, 835, 836, 837, 838, 839, 840, 841, 842, 843, 844, 845, 846, 847, 848, 849, 850, 851, 852, 853, 854, 855, 856, 857, 858, 859, 860, 861, 862, 863, 864, 865, 866, 867, 868, 869, 870, 871, 872, 873, 874, 875, 876, 877, 878, 879, 880, 881, 882, 883, 884, 885, 886, 887, 888, 889, 890, 891, 892, 893, 894, 895, 896, 897, 898, 899, 900, 901, 902, 903, 904, 905, 906, 907, 908, 909, 910, 911, 912, 913, 914, 915, 916, 917, 918, 919, 920, 921, 922, 923, 924, 925, 926, 927, 928, 929, 930, 931, 932, 933, 934, 935, 936, 937, 938, 939, 940, 941, 942, 943, 944, 945, 946, 947, 948, 949, 950, 951, 952, 953, 954, 955, 956, 957, 958, 959, 960, 961, 962, 963, 964, 965, 966, 967, 968, 969, 970, 971, 972, 973, 974, 975, 976, 977, 978, 979, 980, 981, 982, 983, 984, 985, 986, 987, 988, 989, 990, 991, 992, 993, 994, 995, 996, 997, 998, 999, 1000, 1001, 1002, 1003, 1004, 1005, 1006, 1007, 1008, 1009, 1010, 1011, 1012, 1013, 1014, 1015, 1016, 1017, 1018, 1019, 1020, 1021, 1022, 1023, 1024, 1025, 1026, 1027, 1028, 1029, 1030, 1031, 1032, 1033, 1034, 1035, 1036, 1037, 1038, 1039, 1040, 1041, 1042, 1043, 1044, 1045, 1046, 1047, 1048, 1049, 1050, 1051, 1052, 1053, 1054, 1055, 1056, 1057, 1058, 1059, 1060, 1061, 1062, 1063, 1064, 1065, 1066, 1067, 1068, 1069, 1070, 1071, 1072, 1073, 1074, 1075, 1076, 1077, 1078, 1079, 1080, 1081, 1082, 1083, 1084, 1085, 1086, 1087, 1088, 1089, 1090, 1091, 1092, 1093, 1094, 1095, 1096, 1097, 1098, 1099, 1100, 1101, 1102, 1103, 1104, 1105, 1106, 1107, 1108, 1109, 1110, 1111, 1112, 1113, 1114, 1115, 1116, 1117, 1118, 1119, 1120, 1121, 1122, 1123, 1124],
      "AcquisitionTime": ["192838.210000", "192839.215000", "192840.217500", "192841.222500", "192842.225000", "192843.230000", "192844.235000", "192845.237500", "192846.242500", "192847.245000", "192848.250000", "192849.255000", "192850.257500", "192851.262500", "192852.265000", "192853.270000", "192854.275000", "192855.277500", "192856.282500", "192857.285000", "192858.290000", "192859.295000", "192900.297500", "192901.302500", "192902.307500", "192903.310000", "192904.315000", "192905.317500", "192906.322500", "192907.327500", "192908.330000", "192909.335000", "192910.337500", "192911.342500", "192912.347500", "192913.350000", "192914.355000", "192915.357500", "192916.362500", "192917.367500", "192918.370000", "192919.375000", "192920.377500", "192921.382500", "192922.387500", "192923.390000", "192924.395000", "192925.397500", "192926.402500", "192927.407500", "192928.410000", "192929.415000", "192930.417500", "192931.422500", "192932.427500", "192933.430000", "192934.435000", "192935.440000", "192936.442500", "192937.447500", "192938.450000", "192939.455000", "192940.460000", "192941.462500", "192942.467500", "192943.470000", "192944.475000", "192945.480000", "192946.482500", "192947.487500", "192948.490000", "192949.495000", "192950.500000", "192951.502500", "192952.507500", "192953.510000", "192954.515000", "192955.520000", "192956.522500", "192957.527500", "192958.530000", "192959.535000", "193000.540000", "193001.542500", "193002.547500", "193003.552500", "193004.555000", "193005.560000", "193006.562500", "193007.567500", "193008.572500", "193009.575000", "193010.580000", "193011.582500", "193012.587500", "193013.592500", "193014.595000", "193015.600000", "193016.602500", "193017.607500", "193018.612500", "193019.615000", "193020.620000", "193021.622500", "193022.627500", "193023.632500", "193024.635000", "193025.640000", "193026.642500", "193027.647500", "193028.652500", "193029.655000", "193030.660000", "193031.662500", "193032.667500", "193033.672500", "193034.675000", "193035.680000", "193036.685000", "193037.687500", "193038.692500", "193039.695000", "193040.700000", "193041.705000", "193042.707500", "193043.712500", "193044.715000", "193045.720000", "193046.725000", "193047.727500", "193048.732500", "193049.735000", "193050.740000", "193051.745000", "193052.747500", "193053.752500", "193054.755000", "193055.760000", "193056.765000", "193057.767500", "193058.772500", "193059.775000", "193100.780000", "193101.785000", "193102.787500", "193103.792500", "193104.797500", "193105.800000", "193106.805000", "193107.807500", "193108.812500", "193109.817500", "193110.820000", "193111.825000", "193112.827500", "193113.832500", "193114.837500", "193115.840000", "193116.845000", "193117.847500", "193118.852500", "193119.857500", "193120.860000", "193121.865000", "193122.867500", "193123.872500", "193124.877500", "193125.880000", "193126.885000", "193127.887500", "193128.892500", "193129.897500", "193130.900000", "193131.905000", "193132.907500", "193133.912500", "193134.917500", "193135.920000", "193136.925000", "193137.930000", "193138.932500", "193139.937500", "193140.940000", "193141.945000", "193142.950000", "193143.952500", "193144.957500", "193145.960000", "193146.965000", "193147.970000", "193148.972500", "193149.977500", "193150.980000", "193151.985000", "193152.990000", "193153.992500", "193154.997500", "193156.000000", "193157.005000", "193158.010000", "193159.012500", "193200.017500", "193201.020000", "193202.025000", "193203.030000", "193204.032500", "193205.037500", "193206.040000", "193207.045000", "193208.050000", "193209.052500", "193210.057500", "193211.062500", "193212.065000", "193213.070000", "193214.072500", "193215.077500", "193216.082500", "193217.085000", "193218.090000", "193219.092500", "193220.097500", "193221.102500", "193222.105000", "193223.110000", "193224.112500", "193225.117500", "193226.122500", "193227.125000", "193228.130000", "193229.132500", "193230.137500", "193231.142500", "193232.145000", "193233.150000", "193234.152500", "193235.157500", "193236.162500", "193237.165000", "193238.170000", "193239.175000", "193240.177500", "193241.182500", "193242.185000", "193243.190000", "193244.195000", "193245.197500", "193246.202500", "193247.205000", "193248.210000", "193249.215000", "193250.217500", "193251.222500", "193252.225000", "193253.230000", "193254.235000", "193255.237500", "193256.242500", "193257.245000", "193258.250000", "193259.255000", "193300.257500", "193301.262500", "193302.265000", "193303.270000", "193304.275000", "193305.277500", "193306.282500", "193307.285000", "193308.290000", "193309.295000", "193310.297500", "193311.302500", "193312.307500", "193313.310000", "193314.315000", "193315.317500", "193316.322500", "193317.327500", "193318.330000", "193319.335000", "193320.337500", "193321.342500", "193322.347500", "193323.350000", "193324.355000", "193325.357500", "193326.362500", "193327.367500", "193328.370000", "193329.375000", "193330.377500", "193331.382500", "193332.387500", "193333.390000", "193334.395000", "193335.397500", "193336.402500", "193337.407500", "193338.410000", "193339.415000", "193340.417500", "193341.422500", "193342.427500", "193343.430000", "193344.435000", "193345.440000", "193346.442500", "193347.447500", "193348.450000", "193349.455000", "193350.460000", "193351.462500", "193352.467500", "193353.470000", "193354.475000", "193355.480000", "193356.482500", "193357.487500", "193358.490000", "193359.495000", "193400.500000", "193401.502500", "193402.507500", "193403.510000", "193404.515000", "193405.520000", "193406.522500", "193407.527500", "193408.530000", "193409.535000", "193410.540000", "193411.542500", "193412.547500", "193413.552500", "193414.555000", "193415.560000", "193416.562500", "193417.567500", "193418.572500", "193419.575000", "193420.580000", "193421.582500", "193422.587500", "193423.592500", "193424.595000", "193425.600000", "193426.602500", "193427.607500", "193428.612500", "193429.615000", "193430.620000", "193431.622500", "193432.627500", "193433.632500", "193434.635000", "193435.640000", "193436.642500", "193437.647500", "193438.652500", "193439.655000", "193440.660000", "193441.662500", "193442.667500", "193443.672500", "193444.675000", "193445.680000", "193446.685000", "193447.687500", "193448.692500", "193449.695000", "193450.700000", "193451.705000", "193452.707500", "193453.712500", "193454.715000", "193455.720000", "193456.725000", "193457.727500", "193458.732500", "193459.735000", "193500.740000", "193501.745000", "193502.747500", "193503.752500", "193504.755000", "193505.760000", "193506.765000", "193507.767500", "193508.772500", "193509.775000", "193510.780000", "193511.785000", "193512.787500", "193513.792500", "193514.797500", "193515.800000", "193516.805000", "193517.807500", "193518.812500", "193519.817500", "193520.820000", "193521.825000", "193522.827500", "193523.832500", "193524.837500", "193525.840000", "193526.845000", "193527.847500", "193528.852500", "193529.857500", "193530.860000", "193531.865000", "193532.867500", "193533.872500", "193534.877500", "193535.880000", "193536.885000", "193537.887500", "193538.892500", "193539.897500", "193540.900000", "193541.905000", "193542.907500", "193543.912500", "193544.917500", "193545.920000", "193546.925000", "193547.930000", "193548.932500", "193549.937500", "193550.940000", "193551.945000", "193552.950000", "193553.952500", "193554.957500", "193555.960000", "193556.965000", "193557.970000", "193558.972500", "193559.977500", "193600.980000", "193601.985000", "193602.990000", "193603.992500", "193604.997500", "193606.000000", "193607.005000", "193608.010000", "193609.012500", "193610.017500", "193611.020000", "193612.025000", "193613.030000", "193614.032500", "193615.037500", "193616.040000", "193617.045000", "193618.050000", "193619.052500", "193620.057500", "193621.062500", "193622.065000", "193623.070000", "193624.072500", "193625.077500", "193626.082500", "193627.085000", "193628.090000", "193629.092500", "193630.097500", "193631.102500", "193632.105000", "193633.110000", "193634.112500", "193635.117500", "193636.122500", "193637.125000", "193638.130000", "193639.132500", "193640.137500", "193641.142500", "193642.145000", "193643.150000", "193644.152500", "193645.157500", "193646.162500", "193647.165000", "193648.170000", "193649.175000", "193650.177500", "193651.182500", "193652.185000", "193653.190000", "193654.195000", "193655.197500", "193656.202500", "193657.205000", "193658.210000", "193659.215000", "193700.217500", "193701.222500", "193702.225000", "193703.230000", "193704.235000", "193705.237500", "193706.242500", "193707.245000", "193708.250000", "193709.255000", "193710.257500", "193711.262500", "193712.265000", "193713.270000", "193714.275000", "193715.277500", "193716.282500", "193717.285000", "193718.290000", "193719.295000", "193720.297500", "193721.302500", "193722.307500", "193723.310000", "193724.315000", "193725.317500", "193726.322500", "193727.327500", "193728.330000", "193729.335000", "193730.337500", "193731.342500", "193732.347500", "193733.350000", "193734.355000", "193735.357500", "193736.362500", "193737.367500", "193738.370000", "193739.375000", "193740.377500", "193741.382500", "193742.387500", "193743.390000", "193744.395000", "193745.397500", "193746.402500", "193747.407500", "193748.410000", "193749.415000", "193750.417500", "193751.422500", "193752.427500", "193753.430000", "193754.435000", "193755.440000", "193756.442500", "193757.447500", "193758.450000", "193759.455000", "193800.460000", "193801.462500", "193802.467500", "193803.470000", "193804.475000", "193805.480000", "193806.482500", "193807.487500", "193808.490000", "193809.495000", "193810.500000", "193811.502500", "193812.507500", "193813.510000", "193814.515000", "193815.520000", "193816.522500", "193817.527500", "193818.530000", "193819.535000", "193820.540000", "193821.542500", "193822.547500", "193823.552500", "193824.555000", "193825.560000", "193826.562500", "193827.567500", "193828.572500", "193829.575000", "193830.580000", "193831.582500", "193832.587500", "193833.592500", "193834.595000", "193835.600000", "193836.602500", "193837.607500", "193838.612500", "193839.615000", "193840.620000", "193841.622500", "193842.627500", "193843.632500", "193844.635000", "193845.640000", "193846.642500", "193847.647500", "193848.652500", "193849.655000", "193850.660000", "193851.662500", "193852.667500", "193853.672500", "193854.675000", "193855.680000", "193856.685000", "193857.687500", "193858.692500", "193859.695000", "193900.700000", "193901.705000", "193902.707500", "193903.712500", "193904.715000", "193905.720000", "193906.725000", "193907.727500", "193908.732500", "193909.735000", "193910.740000", "193911.745000", "193912.747500", "193913.752500", "193914.755000", "193915.760000", "193916.765000", "193917.767500", "193918.772500", "193919.775000", "193920.780000", "193921.785000", "193922.787500", "193923.792500", "193924.797500", "193925.800000", "193926.805000", "193927.807500", "193928.812500", "193929.817500", "193930.820000", "193931.825000", "193932.827500", "193933.832500", "193934.837500", "193935.840000", "193936.845000", "193937.847500", "193938.852500", "193939.857500", "193940.860000", "193941.865000", "193942.867500", "193943.872500", "193944.877500", "193945.880000", "193946.885000", "193947.887500", "193948.892500", "193949.897500", "193950.900000", "193951.905000", "193952.907500", "193953.912500", "193954.917500", "193955.920000", "193956.925000", "193957.930000", "193958.932500", "193959.937500", "194000.940000", "194001.945000", "194002.950000", "194003.952500", "194004.957500", "194005.960000", "194006.965000", "194007.970000", "194008.972500", "194009.977500", "194010.980000", "194011.985000", "194012.990000", "194013.992500", "194014.997500", "194016.000000", "194017.005000", "194018.010000", "194019.012500", "194020.017500", "194021.020000", "194022.025000", "194023.030000", "194024.032500", "194025.037500", "194026.040000", "194027.045000", "194028.050000", "194029.052500", "194030.057500", "194031.062500", "194032.065000", "194033.070000", "194034.072500", "194035.077500", "194036.082500", "194037.085000", "194038.090000", "194039.092500", "194040.097500", "194041.102500", "194042.105000", "194043.110000", "194044.112500", "194045.117500", "194046.122500", "194047.125000", "194048.130000", "194049.132500", "194050.137500", "194051.142500", "194052.145000", "194053.150000", "194054.152500", "194055.157500", "194056.162500", "194057.165000", "194058.170000", "194059.175000", "194100.177500", "194101.182500", "194102.185000", "194103.190000", "194104.195000", "194105.197500", "194106.202500", "194107.205000", "194108.210000", "194109.215000", "194110.217500", "194111.222500", "194112.225000", "194113.230000", "194114.235000", "194115.237500", "194116.242500", "194117.245000", "194118.250000", "194119.255000", "194120.257500", "194121.262500", "194122.265000", "194123.270000", "194124.275000", "194125.277500", "194126.282500", "194127.285000", "194128.290000", "194129.295000", "194130.297500", "194131.302500", "194132.307500", "194133.310000", "194134.315000", "194135.317500", "194136.322500", "194137.327500", "194138.330000", "194139.335000", "194140.337500", "194141.342500", "194142.347500", "194143.350000", "194144.355000", "194145.357500", "194146.362500", "194147.367500", "194148.370000", "194149.375000", "194150.377500", "194151.382500", "194152.387500", "194153.390000", "194154.395000", "194155.397500", "194156.402500", "194157.407500", "194158.410000", "194159.415000", "194200.417500", "194201.422500", "194202.427500", "194203.430000", "194204.435000", "194205.440000", "194206.442500", "194207.447500", "194208.450000", "194209.455000", "194210.460000", "194211.462500", "194212.467500", "194213.470000", "194214.475000", "194215.480000", "194216.482500", "194217.487500", "194218.490000", "194219.495000", "194220.500000", "194221.502500", "194222.507500", "194223.510000", "194224.515000", "194225.520000", "194226.522500", "194227.527500", "194228.530000", "194229.535000", "194230.540000", "194231.542500", "194232.547500", "194233.552500", "194234.555000", "194235.560000", "194236.562500", "194237.567500", "194238.572500", "194239.575000", "194240.580000", "194241.582500", "194242.587500", "194243.592500", "194244.595000", "194245.600000", "194246.602500", "194247.607500", "194248.612500", "194249.615000", "194250.620000", "194251.622500", "194252.627500", "194253.632500", "194254.635000", "194255.640000", "194256.642500", "194257.647500", "194258.652500", "194259.655000", "194300.660000", "194301.662500", "194302.667500", "194303.672500", "194304.675000", "194305.680000", "194306.685000", "194307.687500", "194308.692500", "194309.695000", "194310.700000", "194311.705000", "194312.707500", "194313.712500", "194314.715000", "194315.720000", "194316.725000", "194317.727500", "194318.732500", "194319.735000", "194320.740000", "194321.745000", "194322.747500", "194323.752500", "194324.755000", "194325.760000", "194326.765000", "194327.767500", "194328.772500", "194329.775000", "194330.780000", "194331.785000", "194332.787500", "194333.792500", "194334.797500", "194335.800000", "194336.805000", "194337.807500", "194338.812500", "194339.817500", "194340.820000", "194341.825000", "194342.827500", "194343.832500", "194344.837500", "194345.840000", "194346.845000", "194347.847500", "194348.852500", "194349.857500", "194350.860000", "194351.865000", "194352.867500", "194353.872500", "194354.877500", "194355.880000", "194356.885000", "194357.887500", "194358.892500", "194359.897500", "194400.900000", "194401.905000", "194402.907500", "194403.912500", "194404.917500", "194405.920000", "194406.925000", "194407.930000", "194408.932500", "194409.937500", "194410.940000", "194411.945000", "194412.950000", "194413.952500", "194414.957500", "194415.960000", "194416.965000", "194417.970000", "194418.972500", "194419.977500", "194420.980000", "194421.985000", "194422.990000", "194423.992500", "194424.997500", "194426.000000", "194427.005000", "194428.010000", "194429.012500", "194430.017500", "194431.020000", "194432.025000", "194433.030000", "194434.032500", "194435.037500", "194436.040000", "194437.045000", "194438.050000", "194439.052500", "194440.057500", "194441.062500", "194442.065000", "194443.070000", "194444.072500", "194445.077500", "194446.082500", "194447.085000", "194448.090000", "194449.092500", "194450.097500", "194451.102500", "194452.105000", "194453.110000", "194454.112500", "194455.117500", "194456.122500", "194457.125000", "194458.130000", "194459.132500", "194500.137500", "194501.142500", "194502.145000", "194503.150000", "194504.152500", "194505.157500", "194506.162500", "194507.165000", "194508.170000", "194509.175000", "194510.177500", "194511.182500", "194512.185000", "194513.190000", "194514.195000", "194515.197500", "194516.202500", "194517.205000", "194518.210000", "194519.215000", "194520.217500", "194521.222500", "194522.225000", "194523.230000", "194524.235000", "194525.237500", "194526.242500", "194527.245000", "194528.250000", "194529.255000", "194530.257500", "194531.262500", "194532.265000", "194533.270000", "194534.275000", "194535.277500", "194536.282500", "194537.285000", "194538.290000", "194539.295000", "194540.297500", "194541.302500", "194542.307500", "194543.310000", "194544.315000", "194545.317500", "194546.322500", "194547.327500", "194548.330000", "194549.335000", "194550.337500", "194551.342500", "194552.347500", "194553.350000", "194554.355000", "194555.357500", "194556.362500", "194557.367500", "194558.370000", "194559.375000", "194600.377500", "194601.382500", "194602.387500", "194603.390000", "194604.395000", "194605.397500", "194606.402500", "194607.407500", "194608.410000", "194609.415000", "194610.417500", "194611.422500", "194612.427500", "194613.430000", "194614.435000", "194615.440000", "194616.442500", "194617.447500", "194618.450000", "194619.455000", "194620.460000", "194621.462500", "194622.467500", "194623.470000", "194624.475000", "194625.480000", "194626.482500", "194627.487500", "194628.490000", "194629.495000", "194630.500000", "194631.502500", "194632.507500", "194633.510000", "194634.515000", "194635.520000", "194636.522500", "194637.527500", "194638.530000", "194639.535000", "194640.540000", "194641.542500", "194642.547500", "194643.552500", "194644.555000", "194645.560000", "194646.562500", "194647.567500", "194648.572500", "194649.575000", "194650.580000", "194651.582500", "194652.587500", "194653.592500", "194654.595000", "194655.600000", "194656.602500", "194657.607500", "194658.612500", "194659.615000", "194700.620000", "194701.622500", "194702.627500", "194703.632500", "194704.635000", "194705.640000", "194706.642500", "194707.647500", "194708.652500", "194709.655000", "194710.660000", "194711.662500", "194712.667500", "194713.672500", "194714.675000", "194715.680000", "194716.685000", "194717.687500", "194718.692500", "194719.695000", "194720.700000", "194721.705000", "194722.707500", "194723.712500", "194724.715000", "194725.720000"],
