{
  "AcquisitionMatrixPE": 64,
  "AcquisitionNumber": 1,
  "AcquisitionTime": "18:00:49.617500",
  "BandwidthPerPixelPhaseEncode": 19.531,
  "BaseResolution": 64,
  "CoilString": "C:HEA;HEP",
  "ConversionSoftware": "dcm2niix",
  "ConversionSoftwareVersion": "v1.0.20190902",
  "DerivedVendorReportedEchoSpacing": 0.00080001,
  "DeviceSerialNumber": "26099",
  "DwellTime": 5.3e-06,
  "EchoTime": 0.0548,
  "EffectiveEchoSpacing": 0.00080001,
  "FlipAngle": 75,
  "ImageComments": "Unaliased_MB4_PE3_LB_SENSE1",
  "ImageOrientationPatientDICOM": [1, 0, 0, 0, 0.951594, -0.307357],
  "ImageType": [
    "ORIGINAL",
    "PRIMARY",
    "M",
    "MB",
    "ND",
    "MOSAIC"
],
  "ImagingFrequency": 63.6394,
  "InPlanePhaseEncodingDirectionDICOM": "COL",
  "InstitutionAddress": "Bedford_Way_26_London_London_GB_WC1H_0AP",
  "InstitutionName": "University_College",
  "InstitutionalDepartmentName": "Department",
  "MRAcquisitionType": "2D",
  "MagneticFieldStrength": 1.5,
  "Manufacturer": "Siemens",
  "ManufacturersModelName": "Avanto",
  "Modality": "MR",
  "MultibandAccelerationFactor": 4,
  "PartialFourier": 1,
  "PatientPosition": "HFS",
  "PercentPhaseFOV": 100,
  "PhaseEncodingDirection": "j-",
  "PhaseEncodingSteps": 64,
  "PhaseResolution": 1,
  "PixelBandwidth": 1474,
  "ProcedureStepDescription": "ucl_bbk_Jeremy",
  "ProtocolName": "EcL4-3.2m-40-1474-1s-55e",
  "PulseSequenceDetails": "%CustomerSeq%_cmrr_mbep2d_bold",
  "ReceiveCoilName": "32Ch_Head",
  "ReconMatrixPE": 64,
  "RepetitionTime": 1,
  "SAR": 0.043733,
  "ScanOptions": "FS",
  "ScanningSequence": "EP",
  "SequenceName": "epfid2d1_64",
  "SequenceVariant": "SK_SS",
  "SeriesDescription": "EcL4-3.2m-40-1474-1s-55e",
  "SeriesNumber": 6,
  "ShimSetting": [149, -37, 391, 677, -350, 130, -357, 110],
  "SliceThickness": 3.2,
  "SliceTiming": [0, 0.7025, 0.4025, 0.1025, 0.805, 0.5025, 0.2025, 0.905, 0.6025, 0.3025, 0, 0.7025, 0.4025, 0.1025, 0.805, 0.5025, 0.2025, 0.905, 0.6025, 0.3025, 0, 0.7025, 0.4025, 0.1025, 0.805, 0.5025, 0.2025, 0.905, 0.6025, 0.3025, 0, 0.7025, 0.4025, 0.1025, 0.805, 0.5025, 0.2025, 0.905, 0.6025, 0.3025],
  "SoftwareVersions": "syngo_MR_B17",
  "SpacingBetweenSlices": 3.2,
  "StationName": "MRC26099",
  "TaskName": "500daysofsummer",
  "CogAtlasID": "http://www.cognitiveatlas.org/task/id/tsk_jbg1oF4D9OTkO/",
  "TotalReadoutTime": 0.0504006,
  "TxRefAmp": 221.624,
  "dcmmeta_affine": [
    [-3.203125, 0.0, 0.0, 102.5],
    [0.0, 3.0480759143829346, -0.9835411310195923, -73.56795501708984],
    [0.0, 0.9845016598701477, 3.045102119445801, -62.68354415893555],
    [0.0, 0.0, 0.0, 1.0]
],
  "dcmmeta_reorient_transform": [
    [0.0, -1.0, 0.0, 63.0],
    [1.0, 0.0, 0.0, 0.0],
    [0.0, 0.0, 1.0, 0.0],
    [0.0, 0.0, 0.0, 1.0]
],
  "dcmmeta_shape": [64, 64, 40, 1541],
  "dcmmeta_slice_dim": 2,
  "dcmmeta_version": 0.6,
  "global": {
    "const": {
      "AcquisitionMatrix": [64, 0, 0, 64],
      "AngioFlag": "N",
      "BitsAllocated": 16,
      "BitsStored": 12,
      "Columns": 448,
      "EchoNumbers": 1,
      "EchoTime": 54.8,
      "EchoTrainLength": 1,
      "FlipAngle": 75.0,
      "HighBit": 11,
      "ImageOrientationPatient": [1.0, 0.0, 0.0, 0.0, 0.95159440477257, -0.3073566150346],
      "ImagePositionPatient": [-717.5, -703.69137922315, 188.36437745188],
      "ImageType": [
        "ORIGINAL",
        "PRIMARY",
        "M",
        "MB",
        "ND",
        "MOSAIC"
],
      "ImagedNucleus": "1H",
      "ImagingFrequency": 63.6394,
      "InPlanePhaseEncodingDirection": "COL",
      "MRAcquisitionType": "2D",
      "MagneticFieldStrength": 1.5,
      "Manufacturer": "SIEMENS",
      "ManufacturerModelName": "Avanto",
      "Modality": "MR",
      "NumberOfAverages": 1.0,
      "NumberOfPhaseEncodingSteps": 64,
      "PercentPhaseFieldOfView": 100.0,
      "PercentSampling": 100.0,
      "PerformedProcedureStepStartTime": "172412.015000",
      "PhotometricInterpretation": "MONOCHROME2",
      "PixelBandwidth": 1474.0,
      "PixelRepresentation": 0,
      "PixelSpacing": [3.203125, 3.203125],
      "ProtocolName": "EcL4-3.2m-40-1474-1s-55e",
      "RepetitionTime": 1000.0,
      "Rows": 448,
      "SAR": 0.04373298992549,
      "SamplesPerPixel": 1,
      "ScanOptions": "FS",
      "ScanningSequence": "EP",
      "SequenceName": "epfid2d1_64",
      "SequenceVariant": [
        "SK",
        "SS"
],
      "SeriesDescription": "EcL4-3.2m-40-1474-1s-55e",
      "SeriesNumber": 6,
      "SeriesTime": "180124.875000",
      "SliceLocation": -37.037712705382,
      "SliceThickness": 3.2000000476837,
      "SmallestImagePixelValue": 0,
      "SoftwareVersions": "syngo MR B17",
      "SpacingBetweenSlices": 3.1999999464921,
      "SpecificCharacterSet": "ISO_IR 100",
      "StudyID": "1",
      "StudyTime": "172411.968000",
      "TransmitCoilName": "Body",
      "VariableFlipAngleFlag": "N",
      "WindowCenterWidthExplanation": "Algo1",
      "dBdt": 0.0},
    "slices": {}
  },
  "time": {
    "samples": {
      "AcquisitionNumber": [1, 2, 3, 4, 5, 6, 7, 8, 9, 10, 11, 12, 13, 14, 15, 16, 17, 18, 19, 20, 21, 22, 23, 24, 25, 26, 27, 28, 29, 30, 31, 32, 33, 34, 35, 36, 37, 38, 39, 40, 41, 42, 43, 44, 45, 46, 47, 48, 49, 50, 51, 52, 53, 54, 55, 56, 57, 58, 59, 60, 61, 62, 63, 64, 65, 66, 67, 68, 69, 70, 71, 72, 73, 74, 75, 76, 77, 78, 79, 80, 81, 82, 83, 84, 85, 86, 87, 88, 89, 90, 91, 92, 93, 94, 95, 96, 97, 98, 99, 100, 101, 102, 103, 104, 105, 106, 107, 108, 109, 110, 111, 112, 113, 114, 115, 116, 117, 118, 119, 120, 121, 122, 123, 124, 125, 126, 127, 128, 129, 130, 131, 132, 133, 134, 135, 136, 137, 138, 139, 140, 141, 142, 143, 144, 145, 146, 147, 148, 149, 150, 151, 152, 153, 154, 155, 156, 157, 158, 159, 160, 161, 162, 163, 164, 165, 166, 167, 168, 169, 170, 171, 172, 173, 174, 175, 176, 177, 178, 179, 180, 181, 182, 183, 184, 185, 186, 187, 188, 189, 190, 191, 192, 193, 194, 195, 196, 197, 198, 199, 200, 201, 202, 203, 204, 205, 206, 207, 208, 209, 210, 211, 212, 213, 214, 215, 216, 217, 218, 219, 220, 221, 222, 223, 224, 225, 226, 227, 228, 229, 230, 231, 232, 233, 234, 235, 236, 237, 238, 239, 240, 241, 242, 243, 244, 245, 246, 247, 248, 249, 250, 251, 252, 253, 254, 255, 256, 257, 258, 259, 260, 261, 262, 263, 264, 265, 266, 267, 268, 269, 270, 271, 272, 273, 274, 275, 276, 277, 278, 279, 280, 281, 282, 283, 284, 285, 286, 287, 288, 289, 290, 291, 292, 293, 294, 295, 296, 297, 298, 299, 300, 301, 302, 303, 304, 305, 306, 307, 308, 309, 310, 311, 312, 313, 314, 315, 316, 317, 318, 319, 320, 321, 322, 323, 324, 325, 326, 327, 328, 329, 330, 331, 332, 333, 334, 335, 336, 337, 338, 339, 340, 341, 342, 343, 344, 345, 346, 347, 348, 349, 350, 351, 352, 353, 354, 355, 356, 357, 358, 359, 360, 361, 362, 363, 364, 365, 366, 367, 368, 369, 370, 371, 372, 373, 374, 375, 376, 377, 378, 379, 380, 381, 382, 383, 384, 385, 386, 387, 388, 389, 390, 391, 392, 393, 394, 395, 396, 397, 398, 399, 400, 401, 402, 403, 404, 405, 406, 407, 408, 409, 410, 411, 412, 413, 414, 415, 416, 417, 418, 419, 420, 421, 422, 423, 424, 425, 426, 427, 428, 429, 430, 431, 432, 433, 434, 435, 436, 437, 438, 439, 440, 441, 442, 443, 444, 445, 446, 447, 448, 449, 450, 451, 452, 453, 454, 455, 456, 457, 458, 459, 460, 461, 462, 463, 464, 465, 466, 467, 468, 469, 470, 471, 472, 473, 474, 475, 476, 477, 478, 479, 480, 481, 482, 483, 484, 485, 486, 487, 488, 489, 490, 491, 492, 493, 494, 495, 496, 497, 498, 499, 500, 501, 502, 503, 504, 505, 506, 507, 508, 509, 510, 511, 512, 513, 514, 515, 516, 517, 518, 519, 520, 521, 522, 523, 524, 525, 526, 527, 528, 529, 530, 531, 532, 533, 534, 535, 536, 537, 538, 539, 540, 541, 542, 543, 544, 545, 546, 547, 548, 549, 550, 551, 552, 553, 554, 555, 556, 557, 558, 559, 560, 561, 562, 563, 564, 565, 566, 567, 568, 569, 570, 571, 572, 573, 574, 575, 576, 577, 578, 579, 580, 581, 582, 583, 584, 585, 586, 587, 588, 589, 590, 591, 592, 593, 594, 595, 596, 597, 598, 599, 600, 601, 602, 603, 604, 605, 606, 607, 608, 609, 610, 611, 612, 613, 614, 615, 616, 617, 618, 619, 620, 621, 622, 623, 624, 625, 626, 627, 628, 629, 630, 631, 632, 633, 634, 635, 636, 637, 638, 639, 640, 641, 642, 643, 644, 645, 646, 647, 648, 649, 650, 651, 652, 653, 654, 655, 656, 657, 658, 659, 660, 661, 662, 663, 664, 665, 666, 667, 668, 669, 670, 671, 672, 673, 674, 675, 676, 677, 678, 679, 680, 681, 682, 683, 684, 685, 686, 687, 688, 689, 690, 691, 692, 693, 694, 695, 696, 697, 698, 699, 700, 701, 702, 703, 704, 705, 706, 707, 708, 709, 710, 711, 712, 713, 714, 715, 716, 717, 718, 719, 720, 721, 722, 723, 724, 725, 726, 727, 728, 729, 730, 731, 732, 733, 734, 735, 736, 737, 738, 739, 740, 741, 742, 743, 744, 745, 746, 747, 748, 749, 750, 751, 752, 753, 754, 755, 756, 757, 758, 759, 760, 761, 762, 763, 764, 765, 766, 767, 768, 769, 770, 771, 772, 773, 774, 775, 776, 777, 778, 779, 780, 781, 782, 783, 784, 785, 786, 787, 788, 789, 790, 791, 792, 793, 794, 795, 796, 797, 798, 799, 800, 801, 802, 803, 804, 805, 806, 807, 808, 809, 810, 811, 812, 813, 814, 815, 816, 817, 818, 819, 820, 821, 822, 823, 824, 825, 826, 827, 828, 829, 830, 831, 832, 833, 834, 835, 836, 837, 838, 839, 840, 841, 842, 843, 844, 845, 846, 847, 848, 849, 850, 851, 852, 853, 854, 855, 856, 857, 858, 859, 860, 861, 862, 863, 864, 865, 866, 867, 868, 869, 870, 871, 872, 873, 874, 875, 876, 877, 878, 879, 880, 881, 882, 883, 884, 885, 886, 887, 888, 889, 890, 891, 892, 893, 894, 895, 896, 897, 898, 899, 900, 901, 902, 903, 904, 905, 906, 907, 908, 909, 910, 911, 912, 913, 914, 915, 916, 917, 918, 919, 920, 921, 922, 923, 924, 925, 926, 927, 928, 929, 930, 931, 932, 933, 934, 935, 936, 937, 938, 939, 940, 941, 942, 943, 944, 945, 946, 947, 948, 949, 950, 951, 952, 953, 954, 955, 956, 957, 958, 959, 960, 961, 962, 963, 964, 965, 966, 967, 968, 969, 970, 971, 972, 973, 974, 975, 976, 977, 978, 979, 980, 981, 982, 983, 984, 985, 986, 987, 988, 989, 990, 991, 992, 993, 994, 995, 996, 997, 998, 999, 1000, 1001, 1002, 1003, 1004, 1005, 1006, 1007, 1008, 1009, 1010, 1011, 1012, 1013, 1014, 1015, 1016, 1017, 1018, 1019, 1020, 1021, 1022, 1023, 1024, 1025, 1026, 1027, 1028, 1029, 1030, 1031, 1032, 1033, 1034, 1035, 1036, 1037, 1038, 1039, 1040, 1041, 1042, 1043, 1044, 1045, 1046, 1047, 1048, 1049, 1050, 1051, 1052, 1053, 1054, 1055, 1056, 1057, 1058, 1059, 1060, 1061, 1062, 1063, 1064, 1065, 1066, 1067, 1068, 1069, 1070, 1071, 1072, 1073, 1074, 1075, 1076, 1077, 1078, 1079, 1080, 1081, 1082, 1083, 1084, 1085, 1086, 1087, 1088, 1089, 1090, 1091, 1092, 1093, 1094, 1095, 1096, 1097, 1098, 1099, 1100, 1101, 1102, 1103, 1104, 1105, 1106, 1107, 1108, 1109, 1110, 1111, 1112, 1113, 1114, 1115, 1116, 1117, 1118, 1119, 1120, 1121, 1122, 1123, 1124, 1125, 1126, 1127, 1128, 1129, 1130, 1131, 1132, 1133, 1134, 1135, 1136, 1137, 1138, 1139, 1140, 1141, 1142, 1143, 1144, 1145, 1146, 1147, 1148, 1149, 1150, 1151, 1152, 1153, 1154, 1155, 1156, 1157, 1158, 1159, 1160, 1161, 1162, 1163, 1164, 1165, 1166, 1167, 1168, 1169, 1170, 1171, 1172, 1173, 1174, 1175, 1176, 1177, 1178, 1179, 1180, 1181, 1182, 1183, 1184, 1185, 1186, 1187, 1188, 1189, 1190, 1191, 1192, 1193, 1194, 1195, 1196, 1197, 1198, 1199, 1200, 1201, 1202, 1203, 1204, 1205, 1206, 1207, 1208, 1209, 1210, 1211, 1212, 1213, 1214, 1215, 1216, 1217, 1218, 1219, 1220, 1221, 1222, 1223, 1224, 1225, 1226, 1227, 1228, 1229, 1230, 1231, 1232, 1233, 1234, 1235, 1236, 1237, 1238, 1239, 1240, 1241, 1242, 1243, 1244, 1245, 1246, 1247, 1248, 1249, 1250, 1251, 1252, 1253, 1254, 1255, 1256, 1257, 1258, 1259, 1260, 1261, 1262, 1263, 1264, 1265, 1266, 1267, 1268, 1269, 1270, 1271, 1272, 1273, 1274, 1275, 1276, 1277, 1278, 1279, 1280, 1281, 1282, 1283, 1284, 1285, 1286, 1287, 1288, 1289, 1290, 1291, 1292, 1293, 1294, 1295, 1296, 1297, 1298, 1299, 1300, 1301, 1302, 1303, 1304, 1305, 1306, 1307, 1308, 1309, 1310, 1311, 1312, 1313, 1314, 1315, 1316, 1317, 1318, 1319, 1320, 1321, 1322, 1323, 1324, 1325, 1326, 1327, 1328, 1329, 1330, 1331, 1332, 1333, 1334, 1335, 1336, 1337, 1338, 1339, 1340, 1341, 1342, 1343, 1344, 1345, 1346, 1347, 1348, 1349, 1350, 1351, 1352, 1353, 1354, 1355, 1356, 1357, 1358, 1359, 1360, 1361, 1362, 1363, 1364, 1365, 1366, 1367, 1368, 1369, 1370, 1371, 1372, 1373, 1374, 1375, 1376, 1377, 1378, 1379, 1380, 1381, 1382, 1383, 1384, 1385, 1386, 1387, 1388, 1389, 1390, 1391, 1392, 1393, 1394, 1395, 1396, 1397, 1398, 1399, 1400, 1401, 1402, 1403, 1404, 1405, 1406, 1407, 1408, 1409, 1410, 1411, 1412, 1413, 1414, 1415, 1416, 1417, 1418, 1419, 1420, 1421, 1422, 1423, 1424, 1425, 1426, 1427, 1428, 1429, 1430, 1431, 1432, 1433, 1434, 1435, 1436, 1437, 1438, 1439, 1440, 1441, 1442, 1443, 1444, 1445, 1446, 1447, 1448, 1449, 1450, 1451, 1452, 1453, 1454, 1455, 1456, 1457, 1458, 1459, 1460, 1461, 1462, 1463, 1464, 1465, 1466, 1467, 1468, 1469, 1470, 1471, 1472, 1473, 1474, 1475, 1476, 1477, 1478, 1479, 1480, 1481, 1482, 1483, 1484, 1485, 1486, 1487, 1488, 1489, 1490, 1491, 1492, 1493, 1494, 1495, 1496, 1497, 1498, 1499, 1500, 1501, 1502, 1503, 1504, 1505, 1506, 1507, 1508, 1509, 1510, 1511, 1512, 1513, 1514, 1515, 1516, 1517, 1518, 1519, 1520, 1521, 1522, 1523, 1524, 1525, 1526, 1527, 1528, 1529, 1530, 1531, 1532, 1533, 1534, 1535, 1536, 1537, 1538, 1539, 1540, 1541],
      "AcquisitionTime": ["180049.617500", "180050.622500", "180051.627500", "180052.630000", "180053.635000", "180054.640000", "180055.642500", "180056.647500", "180057.650000", "180058.655000", "180059.660000", "180100.662500", "180101.667500", "180102.670000", "180103.675000", "180104.680000", "180105.682500", "180106.687500", "180107.690000", "180108.695000", "180109.700000", "180110.702500", "180111.707500", "180112.710000", "180113.715000", "180114.720000", "180115.722500", "180116.727500", "180117.730000", "180118.735000", "180119.740000", "180120.742500", "180121.747500", "180122.750000", "180123.755000", "180124.760000", "180125.762500", "180126.767500", "180127.772500", "180128.775000", "180129.780000", "180130.782500", "180131.787500", "180132.792500", "180133.795000", "180134.800000", "180135.802500", "180136.807500", "180137.812500", "180138.815000", "180139.820000", "180140.822500", "180141.827500", "180142.832500", "180143.835000", "180144.840000", "180145.842500", "180146.847500", "180147.852500", "180148.855000", "180149.860000", "180150.862500", "180151.867500", "180152.872500", "180153.875000", "180154.880000", "180155.882500", "180156.887500", "180157.892500", "180158.895000", "180159.900000", "180200.905000", "180201.907500", "180202.912500", "180203.915000", "180204.920000", "180205.925000", "180206.927500", "180207.932500", "180208.935000", "180209.940000", "180210.945000", "180211.947500", "180212.952500", "180213.955000", "180214.960000", "180215.965000", "180216.967500", "180217.972500", "180218.975000", "180219.980000", "180220.985000", "180221.987500", "180222.992500", "180223.995000", "180225.000000", "180226.005000", "180227.007500", "180228.012500", "180229.017500", "180230.020000", "180231.025000", "180232.027500", "180233.032500", "180234.037500", "180235.040000", "180236.045000", "180237.047500", "180238.052500", "180239.057500", "180240.060000", "180241.065000", "180242.067500", "180243.072500", "180244.077500", "180245.080000", "180246.085000", "180247.087500", "180248.092500", "180249.097500", "180250.100000", "180251.105000", "180252.107500", "180253.112500", "180254.117500", "180255.120000", "180256.125000", "180257.127500", "180258.132500", "180259.137500", "180300.140000", "180301.145000", "180302.150000", "180303.152500", "180304.157500", "180305.160000", "180306.165000", "180307.170000", "180308.172500", "180309.177500", "180310.180000", "180311.185000", "180312.190000", "180313.192500", "180314.197500", "180315.200000", "180316.205000", "180317.210000", "180318.212500", "180319.217500", "180320.220000", "180321.225000", "180322.230000", "180323.232500", "180324.237500", "180325.240000", "180326.245000", "180327.250000", "180328.252500", "180329.257500", "180330.260000", "180331.265000", "180332.270000", "180333.272500", "180334.277500", "180335.282500", "180336.285000", "180337.290000", "180338.292500", "180339.297500", "180340.302500", "180341.305000", "180342.310000", "180343.312500", "180344.317500", "180345.322500", "180346.325000", "180347.330000", "180348.332500", "180349.337500", "180350.342500", "180351.345000", "180352.350000", "180353.352500", "180354.357500", "180355.362500", "180356.365000", "180357.370000", "180358.372500", "180359.377500", "180400.382500", "180401.385000", "180402.390000", "180403.395000", "180404.397500", "180405.402500", "180406.405000", "180407.410000", "180408.415000", "180409.417500", "180410.422500", "180411.425000", "180412.430000", "180413.435000", "180414.437500", "180415.442500", "180416.445000", "180417.450000", "180418.455000", "180419.457500", "180420.462500", "180421.465000", "180422.470000", "180423.475000", "180424.477500", "180425.482500", "180426.485000", "180427.490000", "180428.495000", "180429.497500", "180430.502500", "180431.505000", "180432.510000", "180433.515000", "180434.517500", "180435.522500", "180436.527500", "180437.530000", "180438.535000", "180439.537500", "180440.542500", "180441.547500", "180442.550000", "180443.555000", "180444.557500", "180445.562500", "180446.567500", "180447.570000", "180448.575000", "180449.577500", "180450.582500", "180451.587500", "180452.590000", "180453.595000", "180454.597500", "180455.602500", "180456.607500", "180457.610000", "180458.615000", "180459.617500", "180500.622500", "180501.627500", "180502.630000", "180503.635000", "180504.640000", "180505.642500", "180506.647500", "180507.650000", "180508.655000", "180509.660000", "180510.662500", "180511.667500", "180512.670000", "180513.675000", "180514.680000", "180515.682500", "180516.687500", "180517.690000", "180518.695000", "180519.700000", "180520.702500", "180521.707500", "180522.710000", "180523.715000", "180524.720000", "180525.722500", "180526.727500", "180527.730000", "180528.735000", "180529.740000", "180530.742500", "180531.747500", "180532.750000", "180533.755000", "180534.760000", "180535.762500", "180536.767500", "180537.772500", "180538.775000", "180539.780000", "180540.782500", "180541.787500", "180542.792500", "180543.795000", "180544.800000", "180545.802500", "180546.807500", "180547.812500", "180548.815000", "180549.820000", "180550.822500", "180551.827500", "180552.832500", "180553.835000", "180554.840000", "180555.842500", "180556.847500", "180557.852500", "180558.855000", "180559.860000", "180600.862500", "180601.867500", "180602.872500", "180603.875000", "180604.880000", "180605.882500", "180606.887500", "180607.892500", "180608.895000", "180609.900000", "180610.905000", "180611.907500", "180612.912500", "180613.915000", "180614.920000", "180615.925000", "180616.927500", "180617.932500", "180618.935000", "180619.940000", "180620.945000", "180621.947500", "180622.952500", "180623.955000", "180624.960000", "180625.965000", "180626.967500", "180627.972500", "180628.975000", "180629.980000", "180630.985000", "180631.987500", "180632.992500", "180633.995000", "180635.000000", "180636.005000", "180637.007500", "180638.012500", "180639.017500", "180640.020000", "180641.025000", "180642.027500", "180643.032500", "180644.037500", "180645.040000", "180646.045000", "180647.047500", "180648.052500", "180649.057500", "180650.060000", "180651.065000", "180652.067500", "180653.072500", "180654.077500", "180655.080000", "180656.085000", "180657.087500", "180658.092500", "180659.097500", "180700.100000", "180701.105000", "180702.107500", "180703.112500", "180704.117500", "180705.120000", "180706.125000", "180707.127500", "180708.132500", "180709.137500", "180710.140000", "180711.145000", "180712.150000", "180713.152500", "180714.157500", "180715.160000", "180716.165000", "180717.170000", "180718.172500", "180719.177500", "180720.180000", "180721.185000", "180722.190000", "180723.192500", "180724.197500", "180725.200000", "180726.205000", "180727.210000", "180728.212500", "180729.217500", "180730.220000", "180731.225000", "180732.230000", "180733.232500", "180734.237500", "180735.240000", "180736.245000", "180737.250000", "180738.252500", "180739.257500", "180740.260000", "180741.265000", "180742.270000", "180743.272500", "180744.277500", "180745.282500", "180746.285000", "180747.290000", "180748.292500", "180749.297500", "180750.302500", "180751.305000", "180752.310000", "180753.312500", "180754.317500", "180755.322500", "180756.325000", "180757.330000", "180758.332500", "180759.337500", "180800.342500", "180801.345000", "180802.350000", "180803.352500", "180804.357500", "180805.362500", "180806.365000", "180807.370000", "180808.372500", "180809.377500", "180810.382500", "180811.385000", "180812.390000", "180813.395000", "180814.397500", "180815.402500", "180816.405000", "180817.410000", "180818.415000", "180819.417500", "180820.422500", "180821.425000", "180822.430000", "180823.435000", "180824.437500", "180825.442500", "180826.445000", "180827.450000", "180828.455000", "180829.457500", "180830.462500", "180831.465000", "180832.470000", "180833.475000", "180834.477500", "180835.482500", "180836.485000", "180837.490000", "180838.495000", "180839.497500", "180840.502500", "180841.505000", "180842.510000", "180843.515000", "180844.517500", "180845.522500", "180846.527500", "180847.530000", "180848.535000", "180849.537500", "180850.542500", "180851.547500", "180852.550000", "180853.555000", "180854.557500", "180855.562500", "180856.567500", "180857.570000", "180858.575000", "180859.577500", "180900.582500", "180901.587500", "180902.590000", "180903.595000", "180904.597500", "180905.602500", "180906.607500", "180907.610000", "180908.615000", "180909.617500", "180910.622500", "180911.627500", "180912.630000", "180913.635000", "180914.640000", "180915.642500", "180916.647500", "180917.650000", "180918.655000", "180919.660000", "180920.662500", "180921.667500", "180922.670000", "180923.675000", "180924.680000", "180925.682500", "180926.687500", "180927.690000", "180928.695000", "180929.700000", "180930.702500", "180931.707500", "180932.710000", "180933.715000", "180934.720000", "180935.722500", "180936.727500", "180937.730000", "180938.735000", "180939.740000", "180940.742500", "180941.747500", "180942.750000", "180943.755000", "180944.760000", "180945.762500", "180946.767500", "180947.772500", "180948.775000", "180949.780000", "180950.782500", "180951.787500", "180952.792500", "180953.795000", "180954.800000", "180955.802500", "180956.807500", "180957.812500", "180958.815000", "180959.820000", "181000.822500", "181001.827500", "181002.832500", "181003.835000", "181004.840000", "181005.842500", "181006.847500", "181007.852500", "181008.855000", "181009.860000", "181010.862500", "181011.867500", "181012.872500", "181013.875000", "181014.880000", "181015.882500", "181016.887500", "181017.892500", "181018.895000", "181019.900000", "181020.905000", "181021.907500", "181022.912500", "181023.915000", "181024.920000", "181025.925000", "181026.927500", "181027.932500", "181028.935000", "181029.940000", "181030.945000", "181031.947500", "181032.952500", "181033.955000", "181034.960000", "181035.965000", "181036.967500", "181037.972500", "181038.975000", "181039.980000", "181040.985000", "181041.987500", "181042.992500", "181043.995000", "181045.000000", "181046.005000", "181047.007500", "181048.012500", "181049.017500", "181050.020000", "181051.025000", "181052.027500", "181053.032500", "181054.037500", "181055.040000", "181056.045000", "181057.047500", "181058.052500", "181059.057500", "181100.060000", "181101.065000", "181102.067500", "181103.072500", "181104.077500", "181105.080000", "181106.085000", "181107.087500", "181108.092500", "181109.097500", "181110.100000", "181111.105000", "181112.107500", "181113.112500", "181114.117500", "181115.120000", "181116.125000", "181117.127500", "181118.132500", "181119.137500", "181120.140000", "181121.145000", "181122.150000", "181123.152500", "181124.157500", "181125.160000", "181126.165000", "181127.170000", "181128.172500", "181129.177500", "181130.180000", "181131.185000", "181132.190000", "181133.192500", "181134.197500", "181135.200000", "181136.205000", "181137.210000", "181138.212500", "181139.217500", "181140.220000", "181141.225000", "181142.230000", "181143.232500", "181144.237500", "181145.240000", "181146.245000", "181147.250000", "181148.252500", "181149.257500", "181150.260000", "181151.265000", "181152.270000", "181153.272500", "181154.277500", "181155.282500", "181156.285000", "181157.290000", "181158.292500", "181159.297500", "181200.302500", "181201.305000", "181202.310000", "181203.312500", "181204.317500", "181205.322500", "181206.325000", "181207.330000", "181208.332500", "181209.337500", "181210.342500", "181211.345000", "181212.350000", "181213.352500", "181214.357500", "181215.362500", "181216.365000", "181217.370000", "181218.372500", "181219.377500", "181220.382500", "181221.385000", "181222.390000", "181223.395000", "181224.397500", "181225.402500", "181226.405000", "181227.410000", "181228.415000", "181229.417500", "181230.422500", "181231.425000", "181232.430000", "181233.435000", "181234.437500", "181235.442500", "181236.445000", "181237.450000", "181238.455000", "181239.457500", "181240.462500", "181241.465000", "181242.470000", "181243.475000", "181244.477500", "181245.482500", "181246.485000", "181247.490000", "181248.495000", "181249.497500", "181250.502500", "181251.505000", "181252.510000", "181253.515000", "181254.517500", "181255.522500", "181256.527500", "181257.530000", "181258.535000", "181259.537500", "181300.542500", "181301.547500", "181302.550000", "181303.555000", "181304.557500", "181305.562500", "181306.567500", "181307.570000", "181308.575000", "181309.577500", "181310.582500", "181311.587500", "181312.590000", "181313.595000", "181314.597500", "181315.602500", "181316.607500", "181317.610000", "181318.615000", "181319.617500", "181320.622500", "181321.627500", "181322.630000", "181323.635000", "181324.640000", "181325.642500", "181326.647500", "181327.650000", "181328.655000", "181329.660000", "181330.662500", "181331.667500", "181332.670000", "181333.675000", "181334.680000", "181335.682500", "181336.687500", "181337.690000", "181338.695000", "181339.700000", "181340.702500", "181341.707500", "181342.710000", "181343.715000", "181344.720000", "181345.722500", "181346.727500", "181347.730000", "181348.735000", "181349.740000", "181350.742500", "181351.747500", "181352.750000", "181353.755000", "181354.760000", "181355.762500", "181356.767500", "181357.772500", "181358.775000", "181359.780000", "181400.782500", "181401.787500", "181402.792500", "181403.795000", "181404.800000", "181405.802500", "181406.807500", "181407.812500", "181408.815000", "181409.820000", "181410.822500", "181411.827500", "181412.832500", "181413.835000", "181414.840000", "181415.842500", "181416.847500", "181417.852500", "181418.855000", "181419.860000", "181420.862500", "181421.867500", "181422.872500", "181423.875000", "181424.880000", "181425.882500", "181426.887500", "181427.892500", "181428.895000", "181429.900000", "181430.905000", "181431.907500", "181432.912500", "181433.915000", "181434.920000", "181435.925000", "181436.927500", "181437.932500", "181438.935000", "181439.940000", "181440.945000", "181441.947500", "181442.952500", "181443.955000", "181444.960000", "181445.965000", "181446.967500", "181447.972500", "181448.975000", "181449.980000", "181450.985000", "181451.987500", "181452.992500", "181453.995000", "181455.000000", "181456.005000", "181457.007500", "181458.012500", "181459.017500", "181500.020000", "181501.025000", "181502.027500", "181503.032500", "181504.037500", "181505.040000", "181506.045000", "181507.047500", "181508.052500", "181509.057500", "181510.060000", "181511.065000", "181512.067500", "181513.072500", "181514.077500", "181515.080000", "181516.085000", "181517.087500", "181518.092500", "181519.097500", "181520.100000", "181521.105000", "181522.107500", "181523.112500", "181524.117500", "181525.120000", "181526.125000", "181527.127500", "181528.132500", "181529.137500", "181530.140000", "181531.145000", "181532.150000", "181533.152500", "181534.157500", "181535.160000", "181536.165000", "181537.170000", "181538.172500", "181539.177500", "181540.180000", "181541.185000", "181542.190000", "181543.192500", "181544.197500", "181545.200000", "181546.205000", "181547.210000", "181548.212500", "181549.217500", "181550.220000", "181551.225000", "181552.230000", "181553.232500", "181554.237500", "181555.240000", "181556.245000", "181557.250000", "181558.252500", "181559.257500", "181600.260000", "181601.265000", "181602.270000", "181603.272500", "181604.277500", "181605.282500", "181606.285000", "181607.290000", "181608.292500", "181609.297500", "181610.302500", "181611.305000", "181612.310000", "181613.312500", "181614.317500", "181615.322500", "181616.325000", "181617.330000", "181618.332500", "181619.337500", "181620.342500", "181621.345000", "181622.350000", "181623.352500", "181624.357500", "181625.362500", "181626.365000", "181627.370000", "181628.372500", "181629.377500", "181630.382500", "181631.385000", "181632.390000", "181633.395000", "181634.397500", "181635.402500", "181636.405000", "181637.410000", "181638.415000", "181639.417500", "181640.422500", "181641.425000", "181642.430000", "181643.435000", "181644.437500", "181645.442500", "181646.445000", "181647.450000", "181648.455000", "181649.457500", "181650.462500", "181651.465000", "181652.470000", "181653.475000", "181654.477500", "181655.482500", "181656.485000", "181657.490000", "181658.495000", "181659.497500", "181700.502500", "181701.505000", "181702.510000", "181703.515000", "181704.517500", "181705.522500", "181706.527500", "181707.530000", "181708.535000", "181709.537500", "181710.542500", "181711.547500", "181712.550000", "181713.555000", "181714.557500", "181715.562500", "181716.567500", "181717.570000", "181718.575000", "181719.577500", "181720.582500", "181721.587500", "181722.590