{
  "aor": 0.002023530997304582,
  "aqi": 0.005115301846361186,
  "bids_meta": {
    "AcquisitionMatrixPE": 64,
    "AcquisitionNumber": 1,
    "AcquisitionTime": "19:24:25.907500",
    "BandwidthPerPixelPhaseEncode": 19.531,
    "BaseResolution": 64,
    "CogAtlasID": "TODO",
    "CoilString": "C:HEA;HEP",
    "ConversionSoftware": "dcm2niix",
    "ConversionSoftwareVersion": "v1.0.20190902",
    "DerivedVendorReportedEchoSpacing": 0.00080001,
    "DeviceSerialNumber": "26099",
    "DwellTime": 5.3e-06,
    "EchoTime": 0.0548,
    "EffectiveEchoSpacing": 0.00080001,
    "FlipAngle": 75,
    "ImageComments": "Unaliased_MB4_PE3_LB_SENSE1",
    "ImageOrientationPatientDICOM": [
      1,
      2e-16,
      0,
      -2e-16,
      0.969016,
      -0.246999
    ],
    "ImageType": [
      "ORIGINAL",
      "PRIMARY",
      "M",
      "MB",
      "ND",
      "MOSAIC"
    ],
    "ImagingFrequency": 63.6806,
    "InPlanePhaseEncodingDirectionDICOM": "COL",
    "InstitutionAddress": "Bedford_Way_26_London_London_GB_WC1H_0AP",
    "InstitutionName": "BUCNI",
    "InstitutionalDepartmentName": "Department",
    "MRAcquisitionType": "2D",
    "MagneticFieldStrength": 1.5,
    "Manufacturer": "Siemens",
    "ManufacturersModelName": "Avanto",
    "Modality": "MR",
    "MultibandAccelerationFactor": 4,
    "PartialFourier": 1,
    "PatientPosition": "HFS",
    "PercentPhaseFOV": 100,
    "PhaseEncodingDirection": "j-",
    "PhaseEncodingSteps": 64,
    "PhaseResolution": 1,
    "PixelBandwidth": 1474,
    "ProcedureStepDescription": "ucl_bbk_Jeremy",
    "ProtocolName": "EcL4-3.2m-40-1474-1s-55e",
    "PulseSequenceDetails": "%CustomerSeq%_cmrr_mbep2d_bold",
    "ReceiveCoilName": "32Ch_Head",
    "ReconMatrixPE": 64,
    "RepetitionTime": 1,
    "SAR": 0.0457533,
    "ScanOptions": "FS",
    "ScanningSequence": "EP",
    "SequenceName": "epfid2d1_64",
    "SequenceVariant": "SK_SS",
    "SeriesDescription": "EcL4-3.2m-40-1474-1s-55e",
    "SeriesNumber": 10,
    "ShimSetting": [
      104,
      19,
      231,
      468,
      -116,
      775,
      -351,
      269
    ],
    "SliceThickness": 3.2,
    "SliceTiming": [
      0,
      0.7025,
      0.4025,
      0.1,
      0.8025,
      0.5025,
      0.2,
      0.9025,
      0.6025,
      0.3025,
      0,
      0.7025,
      0.4025,
      0.1,
      0.8025,
      0.5025,
      0.2,
      0.9025,
      0.6025,
      0.3025,
      0,
      0.7025,
      0.4025,
      0.1,
      0.8025,
      0.5025,
      0.2,
      0.9025,
      0.6025,
      0.3025,
      0,
      0.7025,
      0.4025,
      0.1,
      0.8025,
      0.5025,
      0.2,
      0.9025,
      0.6025,
      0.3025
    ],
    "SoftwareVersions": "syngo_MR_B17",
    "SpacingBetweenSlices": 3.2,
    "StationName": "MRC26099",
    "TaskName": "citizenfour",
    "TotalReadoutTime": 0.0504006,
    "TxRefAmp": 224.404,
    "dataset": "<unset>",
    "dcmmeta_affine": [
      [
        -3.203125,
        -6.40624994052057e-16,
        1.5807936343101612e-16,
        102.5
      ],
      [
        -6.40624994052057e-16,
        3.1038784980773926,
        -0.7903968095779419,
        -76.5459976196289
      ],
      [
        0.0,
        0.7911686897277832,
        3.1008503437042236,
        -65.96133422851562
      ],
      [
        0.0,
        0.0,
        0.0,
        1.0
      ]
    ],
    "dcmmeta_reorient_transform": [
      [
        0.0,
        -1.0,
        0.0,
        63.0
      ],
      [
        1.0,
        0.0,
        0.0,
        0.0
      ],
      [
        0.0,
        0.0,
        1.0,
        0.0
      ],
      [
        0.0,
        0.0,
        0.0,
        1.0
      ]
    ],
    "dcmmeta_shape": [
      64,
      64,
      40,
      742
    ],
    "dcmmeta_slice_dim": 2,
    "dcmmeta_version": 0.6,
    "global": {
      "const": {
        "AcquisitionMatrix": [
          64,
          0,
          0,
          64
        ],
        "AngioFlag": "N",
        "BitsAllocated": 16,
        "BitsStored": 12,
        "Columns": 448,
        "EchoNumbers": 1,
        "EchoTime": 54.8,
        "EchoTrainLength": 1,
        "FlipAngle": 75.0,
        "HighBit": 11,
        "ImageOrientationPatient": [
          1.0,
          2e-16,
          0.0,
          -2e-16,
          0.96901573474031,
          -0.2469989996451
        ],
        "ImagePositionPatient": [
          -717.5,
          -714.94302978848,
          135.78667787526
        ],
        "ImageType": [
          "ORIGINAL",
          "PRIMARY",
          "M",
          "MB",
          "ND",
          "MOSAIC"
        ],
        "ImagedNucleus": "1H",
        "ImagingFrequency": 63.680552,
        "InPlanePhaseEncodingDirection": "COL",
        "MRAcquisitionType": "2D",
        "MagneticFieldStrength": 1.5,
        "Manufacturer": "SIEMENS",
        "ManufacturerModelName": "Avanto",
        "Modality": "MR",
        "NumberOfAverages": 1.0,
        "NumberOfPhaseEncodingSteps": 64,
        "PercentPhaseFieldOfView": 100.0,
        "PercentSampling": 100.0,
        "PerformedProcedureStepStartTime": "171138.984000",
        "PhotometricInterpretation": "MONOCHROME2",
        "PixelBandwidth": 1474.0,
        "PixelRepresentation": 0,
        "PixelSpacing": [
          3.203125,
          3.203125
        ],
        "ProtocolName": "EcL4-3.2m-40-1474-1s-55e",
        "RepetitionTime": 1000.0,
        "Rows": 448,
        "SAR": 0.04575332740779,
        "SamplesPerPixel": 1,
        "ScanOptions": "FS",
        "ScanningSequence": "EP",
        "SequenceName": "epfid2d1_64",
        "SequenceVariant": [
          "SK",
          "SS"
        ],
        "SeriesDescription": "EcL4-3.2m-40-1474-1s-55e",
        "SeriesNumber": 10,
        "SeriesTime": "192506.453000",
        "SliceLocation": -45.010785731768,
        "SliceThickness": 3.2000000476837,
        "SmallestImagePixelValue": 0,
        "SoftwareVersions": "syngo MR B17",
        "SpacingBetweenSlices": 3.200000085258,
        "SpecificCharacterSet": "ISO_IR 100",
        "StudyID": "1",
        "StudyTime": "171138.921000",
        "TransmitCoilName": "Body",
        "VariableFlipAngleFlag": "N",
        "WindowCenterWidthExplanation": "Algo1",
        "dBdt": 0.0
      },
      "slices": {}
    },
    "modality": "bold",
    "run_id": 4,
    "subject_id": "23",
    "task_id": "citizenfour",
    "time": {
      "samples": {
        "AcquisitionNumber": [
          1,
          2,
          3,
          4,
          5,
          6,
          7,
          8,
          9,
          10,
          11,
          12,
          13,
          14,
          15,
          16,
          17,
          18,
          19,
          20,
          21,
          22,
          23,
          24,
          25,
          26,
          27,
          28,
          29,
          30,
          31,
          32,
          33,
          34,
          35,
          36,
          37,
          38,
          39,
          40,
          41,
          42,
          43,
          44,
          45,
          46,
          47,
          48,
          49,
          50,
          51,
          52,
          53,
          54,
          55,
          56,
          57,
          58,
          59,
          60,
          61,
          62,
          63,
          64,
          65,
          66,
          67,
          68,
          69,
          70,
          71,
          72,
          73,
          74,
          75,
          76,
          77,
          78,
          79,
          80,
          81,
          82,
          83,
          84,
          85,
          86,
          87,
          88,
          89,
          90,
          91,
          92,
          93,
          94,
          95,
          96,
          97,
          98,
          99,
          100,
          101,
          102,
          103,
          104,
          105,
          106,
          107,
          108,
          109,
          110,
          111,
          112,
          113,
          114,
          115,
          116,
          117,
          118,
          119,
          120,
          121,
          122,
          123,
          124,
          125,
          126,
          127,
          128,
          129,
          130,
          131,
          132,
          133,
          134,
          135,
          136,
          137,
          138,
          139,
          140,
          141,
          142,
          143,
          144,
          145,
          146,
          147,
          148,
          149,
          150,
          151,
          152,
          153,
          154,
          155,
          156,
          157,
          158,
          159,
          160,
          161,
          162,
          163,
          164,
          165,
          166,
          167,
          168,
          169,
          170,
          171,
          172,
          173,
          174,
          175,
          176,
          177,
          178,
          179,
          180,
          181,
          182,
          183,
          184,
          185,
          186,
          187,
          188,
          189,
          190,
          191,
          192,
          193,
          194,
          195,
          196,
          197,
          198,
          199,
          200,
          201,
          202,
          203,
          204,
          205,
          206,
          207,
          208,
          209,
          210,
          211,
          212,
          213,
          214,
          215,
          216,
          217,
          218,
          219,
          220,
          221,
          222,
          223,
          224,
          225,
          226,
          227,
          228,
          229,
          230,
          231,
          232,
          233,
          234,
          235,
          236,
          237,
          238,
          239,
          240,
          241,
          242,
          243,
          244,
          245,
          246,
          247,
          248,
          249,
          250,
          251,
          252,
          253,
          254,
          255,
          256,
          257,
          258,
          259,
          260,
          261,
          262,
          263,
          264,
          265,
          266,
          267,
          268,
          269,
          270,
          271,
          272,
          273,
          274,
          275,
          276,
          277,
          278,
          279,
          280,
          281,
          282,
          283,
          284,
          285,
          286,
          287,
          288,
          289,
          290,
          291,
          292,
          293,
          294,
          295,
          296,
          297,
          298,
          299,
          300,
          301,
          302,
          303,
          304,
          305,
          306,
          307,
          308,
          309,
          310,
          311,
          312,
          313,
          314,
          315,
          316,
          317,
          318,
          319,
          320,
          321,
          322,
          323,
          324,
          325,
          326,
          327,
          328,
          329,
          330,
          331,
          332,
          333,
          334,
          335,
          336,
          337,
          338,
          339,
          340,
          341,
          342,
          343,
          344,
          345,
          346,
          347,
          348,
          349,
          350,
          351,
          352,
          353,
          354,
          355,
          356,
          357,
          358,
          359,
          360,
          361,
          362,
          363,
          364,
          365,
          366,
          367,
          368,
          369,
          370,
          371,
          372,
          373,
          374,
          375,
          376,
          377,
          378,
          379,
          380,
          381,
          382,
          383,
          384,
          385,
          386,
          387,
          388,
          389,
          390,
          391,
          392,
          393,
          394,
          395,
          396,
          397,
          398,
          399,
          400,
          401,
          402,
          403,
          404,
          405,
          406,
          407,
          408,
          409,
          410,
          411,
          412,
          413,
          414,
          415,
          416,
          417,
          418,
          419,
          420,
          421,
          422,
          423,
          424,
          425,
          426,
          427,
          428,
          429,
          430,
          431,
          432,
          433,
          434,
          435,
          436,
          437,
          438,
          439,
          440,
          441,
          442,
          443,
          444,
          445,
          446,
          447,
          448,
          449,
          450,
          451,
          452,
          453,
          454,
          455,
          456,
          457,
          458,
          459,
          460,
          461,
          462,
          463,
          464,
          465,
          466,
          467,
          468,
          469,
          470,
          471,
          472,
          473,
          474,
          475,
          476,
          477,
          478,
          479,
          480,
          481,
          482,
          483,
          484,
          485,
          486,
          487,
          488,
          489,
          490,
          491,
          492,
          493,
          494,
          495,
          496,
          497,
          498,
          499,
          500,
          501,
          502,
          503,
          504,
          505,
          506,
          507,
          508,
          509,
          510,
          511,
          512,
          513,
          514,
          515,
          516,
          517,
          518,
          519,
          520,
          521,
          522,
          523,
          524,
          525,
          526,
          527,
          528,
          529,
          530,
          531,
          532,
          533,
          534,
          535,
          536,
          537,
          538,
          539,
          540,
          541,
          542,
          543,
          544,
          545,
          546,
          547,
          548,
          549,
          550,
          551,
          552,
          553,
          554,
          555,
          556,
          557,
          558,
          559,
          560,
          561,
          562,
          563,
          564,
          565,
          566,
          567,
          568,
          569,
          570,
          571,
          572,
          573,
          574,
          575,
          576,
          577,
          578,
          579,
          580,
          581,
          582,
          583,
          584,
          585,
          586,
          587,
          588,
          589,
          590,
          591,
          592,
          593,
          594,
          595,
          596,
          597,
          598,
          599,
          600,
          601,
          602,
          603,
          604,
          605,
          606,
          607,
          608,
          609,
          610,
          611,
          612,
          613,
          614,
          615,
          616,
          617,
          618,
          619,
          620,
          621,
          622,
          623,
          624,
          625,
          626,
          627,
          628,
          629,
          630,
          631,
          632,
          633,
          634,
          635,
          636,
          637,
          638,
          639,
          640,
          641,
          642,
          643,
          644,
          645,
          646,
          647,
          648,
          649,
          650,
          651,
          652,
          653,
          654,
          655,
          656,
          657,
          658,
          659,
          660,
          661,
          662,
          663,
          664,
          665,
          666,
          667,
          668,
          669,
          670,
          671,
          672,
          673,
          674,
          675,
          676,
          677,
          678,
          679,
          680,
          681,
          682,
          683,
          684,
          685,
          686,
          687,
          688,
          689,
          690,
          691,
          692,
          693,
          694,
          695,
          696,
          697,
          698,
          699,
          700,
          701,
          702,
          703,
          704,
          705,
          706,
          707,
          708,
          709,
          710,
          711,
          712,
          713,
          714,
          715,
          716,
          717,
          718,
          719,
          720,
          721,
          722,
          723,
          724,
          725,
          726,
          727,
          728,
          729,
          730,
          731,
          732,
          733,
          734,
          735,
          736,
          737,
          738,
          739,
          740,
          741,
          742
        ],
        "AcquisitionTime": [
          "192425.907500",
          "192426.912500",
          "192427.915000",
          "192428.920000",
          "192429.925000",
          "192430.927500",
          "192431.932500",
          "192432.935000",
          "192433.940000",
          "192434.945000",
          "192435.947500",
          "192436.952500",
          "192437.955000",
          "192438.960000",
          "192439.965000",
          "192440.967500",
          "192441.972500",
          "192442.977500",
          "192443.980000",
          "192444.985000",
          "192445.987500",
          "192446.992500",
          "192447.997500",
          "192449.000000",
          "192450.005000",
          "192451.007500",
          "192452.012500",
          "192453.017500",
          "192454.020000",
          "192455.025000",
          "192456.027500",
          "192457.032500",
          "192458.037500",
          "192459.040000",
          "192500.045000",
          "192501.047500",
          "192502.052500",
          "192503.057500",
          "192504.060000",
          "192505.065000",
          "192506.067500",
          "192507.072500",
          "192508.077500",
          "192509.080000",
          "192510.085000",
          "192511.087500",
          "192512.092500",
          "192513.097500",
          "192514.100000",
          "192515.105000",
          "192516.110000",
          "192517.112500",
          "192518.117500",
          "192519.120000",
          "192520.125000",
          "192521.130000",
          "192522.132500",
          "192523.137500",
          "192524.140000",
          "192525.145000",
          "192526.150000",
          "192527.152500",
          "192528.157500",
          "192529.160000",
          "192530.165000",
          "192531.170000",
          "192532.172500",
          "192533.177500",
          "192534.180000",
          "192535.185000",
          "192536.190000",
          "192537.192500",
          "192538.197500",
          "192539.200000",
          "192540.205000",
          "192541.210000",
          "192542.212500",
          "192543.217500",
          "192544.220000",
          "192545.225000",
          "192546.230000",
          "192547.232500",
          "192548.237500",
          "192549.242500",
          "192550.245000",
          "192551.250000",
          "192552.252500",
          "192553.257500",
          "192554.262500",
          "192555.265000",
          "192556.270000",
          "192557.272500",
          "192558.277500",
          "192559.282500",
          "192600.285000",
          "192601.290000",
          "192602.292500",
          "192603.297500",
          "192604.302500",
          "192605.305000",
          "192606.310000",
          "192607.312500",
          "192608.317500",
          "192609.322500",
          "192610.325000",
          "192611.330000",
          "192612.332500",
          "192613.337500",
          "192614.342500",
          "192615.345000",
          "192616.350000",
          "192617.355000",
          "192618.357500",
          "192619.362500",
          "192620.365000",
          "192621.370000",
          "192622.375000",
          "192623.377500",
          "192624.382500",
          "192625.385000",
          "192626.390000",
          "192627.395000",
          "192628.397500",
          "192629.402500",
          "192630.405000",
          "192631.410000",
          "192632.415000",
          "192633.417500",
          "192634.422500",
          "192635.425000",
          "192636.430000",
          "192637.435000",
          "192638.437500",
          "192639.442500",
          "192640.445000",
          "192641.450000",
          "192642.455000",
          "192643.457500",
          "192644.462500",
          "192645.465000",
          "192646.470000",
          "192647.475000",
          "192648.477500",
          "192649.482500",
          "192650.487500",
          "192651.490000",
          "192652.495000",
          "192653.497500",
          "192654.502500",
          "192655.507500",
          "192656.510000",
          "192657.515000",
          "192658.517500",
          "192659.522500",
          "192700.527500",
          "192701.530000",
          "192702.535000",
          "192703.537500",
          "192704.542500",
          "192705.547500",
          "192706.550000",
          "192707.555000",
          "192708.557500",
          "192709.562500",
          "192710.567500",
          "192711.570000",
          "192712.575000",
          "192713.577500",
          "192714.582500",
          "192715.587500",
          "192716.590000",
          "192717.595000",
          "192718.600000",
          "192719.602500",
          "192720.607500",
          "192721.610000",
          "192722.615000",
          "192723.620000",
          "192724.622500",
          "192725.627500",
          "192726.630000",
          "192727.635000",
          "192728.640000",
          "192729.642500",
          "192730.647500",
          "192731.650000",
          "192732.655000",
          "192733.660000",
          "192734.662500",
          "192735.667500",
          "192736.670000",
          "192737.675000",
          "192738.680000",
          "192739.682500",
          "192740.687500",
          "192741.690000",
          "192742.695000",
          "192743.700000",
          "192744.702500",
          "192745.707500",
          "192746.710000",
          "192747.715000",
          "192748.720000",
          "192749.722500",
          "192750.727500",
          "192751.732500",
          "192752.735000",
          "192753.740000",
          "192754.742500",
          "192755.747500",
          "192756.752500",
          "192757.755000",
          "192758.760000",
          "192759.762500",
          "192800.767500",
          "192801.772500",
          "192802.775000",
          "192803.780000",
          "192804.782500",
          "192805.787500",
          "192806.792500",
          "192807.795000",
          "192808.800000",
          "192809.802500",
          "192810.807500",
          "192811.812500",
          "192812.815000",
          "192813.820000",
          "192814.822500",
          "192815.827500",
          "192816.832500",
          "192817.835000",
          "192818.840000",
          "192819.842500",
          "192820.847500",
          "192821.852500",
          "192822.855000",
          "192823.860000",
          "192824.865000",
          "192825.867500",
          "192826.872500",
          "192827.875000",
          "192828.880000",
          "192829.885000",
          "192830.887500",
          "192831.892500",
          "192832.895000",
          "192833.900000",
          "192834.905000",
          "192835.907500",
          "192836.912500",
          "192837.915000",
          "192838.920000",
          "192839.925000",
          "192840.927500",
          "192841.932500",
          "192842.935000",
          "192843.940000",
          "192844.945000",
          "192845.947500",
          "192846.952500",
          "192847.955000",
          "192848.960000",
          "192849.965000",
          "192850.967500",
          "192851.972500",
          "192852.977500",
          "192853.980000",
          "192854.985000",
          "192855.987500",
          "192856.992500",
          "192857.997500",
          "192859.000000",
          "192900.005000",
          "192901.007500",
          "192902.012500",
          "192903.017500",
          "192904.020000",
          "192905.025000",
          "192906.027500",
          "192907.032500",
          "192908.037500",
          "192909.040000",
          "192910.045000",
          "192911.047500",
          "192912.052500",
          "192913.057500",
          "192914.060000",
          "192915.065000",
          "192916.067500",
          "192917.072500",
          "192918.077500",
          "192919.080000",
          "192920.085000",
          "192921.087500",
          "192922.092500",
          "192923.097500",
          "192924.100000",
          "192925.105000",
          "192926.110000",
          "192927.112500",
          "192928.117500",
          "192929.120000",
          "192930.125000",
          "192931.130000",
          "192932.132500",
          "192933.137500",
          "192934.140000",
          "192935.145000",
          "192936.150000",
          "192937.152500",
          "192938.157500",
          "192939.160000",
          "192940.165000",
          "192941.170000",
          "192942.172500",
          "192943.177500",
          "192944.180000",
          "192945.185000",
          "192946.190000",
          "192947.192500",
          "192948.197500",
          "192949.200000",
          "192950.205000",
          "192951.210000",
          "192952.212500",
          "192953.217500",
          "192954.220000",
          "192955.225000",
          "192956.230000",
          "192957.232500",
          "192958.237500",
          "192959.242500",
          "193000.245000",
          "193001.250000",
          "193002.252500",
          "193003.257500",
          "193004.262500",
          "193005.265000",
          "193006.270000",
          "193007.272500",
          "193008.277500",
          "193009.282500",
          "193010.285000",
          "193011.290000",
          "193012.292500",
          "193013.297500",
          "193014.302500",
          "193015.305000",
          "193016.310000",
          "193017.312500",
          "193018.317500",
          "193019.322500",
          "193020.325000",
          "193021.330000",
          "193022.332500",
          "193023.337500",
          "193024.342500",
          "193025.345000",
          "193026.350000",
          "193027.355000",
          "193028.357500",
          "193029.362500",
          "193030.365000",
          "193031.370000",
          "193032.375000",
          "193033.377500",
          "193034.382500",
          "193035.385000",
          "193036.390000",
          "193037.395000",
          "193038.397500",
          "193039.402500",
          "193040.405000",
          "193041.410000",
          "193042.415000",
          "193043.417500",
          "193044.422500",
          "193045.425000",
          "193046.430000",
          "193047.435000",
          "193048.437500",
          "193049.442500",
          "193050.445000",
          "193051.450000",
          "193052.455000",
          "193053.457500",
          "193054.462500",
          "193055.465000",
          "193056.470000",
          "193057.475000",
          "193058.477500",
          "193059.482500",
          "193100.487500",
          "193101.490000",
          "193102.495000",
          "193103.497500",
          "193104.502500",
          "193105.507500",
          "193106.510000",
          "193107.515000",
          "193108.517500",
          "193109.522500",
          "193110.527500",
          "193111.530000",
          "193112.535000",
          "193113.537500",
          "193114.542500",
          "193115.547500",
          "193116.550000",
          "193117.555000",
          "193118.557500",
          "193119.562500",
          "193120.567500",
          "193121.570000",
          "193122.575000",
          "193123.577500",
          "193124.582500",
          "193125.587500",
          "193126.590000",
          "193127.595000",
          "193128.600000",
          "193129.602500",
          "193130.607500",
          "193131.610000",
          "193132.615000",
          "193133.620000",
          "193134.622500",
          "193135.627500",
          "193136.630000",
          "193137.635000",
          "193138.640000",
          "193139.642500",
          "193140.647500",
          "193141.650000",
          "193142.655000",
          "193143.660000",
          "193144.662500",
          "193145.667500",
          "193146.670000",
          "193147.675000",
          "193148.680000",
          "193149.682500",
          "193150.687500",
          "193151.690000",
          "193152.695000",
          "193153.700000",
          "193154.702500",
          "193155.707500",
          "193156.710000",
          "193157.715000",
          "193158.720000",
          "193159.722500",
          "193200.727500",
          "193201.732500",
          "193202.735000",
          "193203.740000",
          "193204.742500",
          "193205.747500",
          "193206.752500",
          "193207.755000",
          "193208.760000",
          "193209.762500",
          "193210.767500",
