{
  "AcquisitionMatrixPE": 64,
  "AcquisitionNumber": 1,
  "AcquisitionTime": "17:30:53.117500",
  "BandwidthPerPixelPhaseEncode": 19.531,
  "BaseResolution": 64,
  "CoilString": "C:HEA;HEP",
  "ConversionSoftware": "dcm2niix",
  "ConversionSoftwareVersion": "v1.0.20190902",
  "DerivedVendorReportedEchoSpacing": 0.00080001,
  "DeviceSerialNumber": "26099",
  "DwellTime": 5.3e-06,
  "EchoTime": 0.0548,
  "EffectiveEchoSpacing": 0.00080001,
  "FlipAngle": 75,
  "ImageComments": "Unaliased_MB4_PE3_LB_SENSE1",
  "ImageOrientationPatientDICOM": [1, 0, 0, 0, 0.960294, -0.278991],
  "ImageType": [
    "ORIGINAL",
    "PRIMARY",
    "M",
    "MB",
    "ND",
    "MOSAIC"
],
  "ImagingFrequency": 63.6396,
  "InPlanePhaseEncodingDirectionDICOM": "COL",
  "InstitutionAddress": "Bedford_Way_26_London_London_GB_WC1H_0AP",
  "InstitutionName": "University_College",
  "InstitutionalDepartmentName": "Department",
  "MRAcquisitionType": "2D",
  "MagneticFieldStrength": 1.5,
  "Manufacturer": "Siemens",
  "ManufacturersModelName": "Avanto",
  "Modality": "MR",
  "MultibandAccelerationFactor": 4,
  "PartialFourier": 1,
  "PatientPosition": "HFS",
  "PercentPhaseFOV": 100,
  "PhaseEncodingDirection": "j-",
  "PhaseEncodingSteps": 64,
  "PhaseResolution": 1,
  "PixelBandwidth": 1474,
  "ProcedureStepDescription": "ucl_bbk_Jeremy",
  "ProtocolName": "EcL4-3.2m-40-1474-1s-55e",
  "PulseSequenceDetails": "%CustomerSeq%_cmrr_mbep2d_bold",
  "ReceiveCoilName": "32Ch_Head",
  "ReconMatrixPE": 64,
  "RepetitionTime": 1,
  "SAR": 0.0359739,
  "ScanOptions": "FS",
  "ScanningSequence": "EP",
  "SequenceName": "epfid2d1_64",
  "SequenceVariant": "SK_SS",
  "SeriesDescription": "EcL4-3.2m-40-1474-1s-55e",
  "SeriesNumber": 3,
  "ShimSetting": [140, -93, 352, 1096, -193, 178, 70, 105],
  "SliceThickness": 3.2,
  "SliceTiming": [0, 0.7025, 0.4025, 0.1, 0.8025, 0.5025, 0.2, 0.9025, 0.6025, 0.3025, 0, 0.7025, 0.4025, 0.1, 0.8025, 0.5025, 0.2, 0.9025, 0.6025, 0.3025, 0, 0.7025, 0.4025, 0.1, 0.8025, 0.5025, 0.2, 0.9025, 0.6025, 0.3025, 0, 0.7025, 0.4025, 0.1, 0.8025, 0.5025, 0.2, 0.9025, 0.6025, 0.3025],
  "SoftwareVersions": "syngo_MR_B17",
  "SpacingBetweenSlices": 3.2,
  "StationName": "MRC26099",
  "TaskName": "backtothefuture",
  "TotalReadoutTime": 0.0504006,
  "TxRefAmp": 212.575,
  "dcmmeta_affine": [
    [-3.203125, 0.0, 0.0, 102.5],
    [0.0, 3.0759406089782715, -0.8927715420722961, -76.20177459716797],
    [0.0, 0.8936433792114258, 3.072939872741699, -57.2620735168457],
    [0.0, 0.0, 0.0, 1.0]
],
  "dcmmeta_reorient_transform": [
    [0.0, -1.0, 0.0, 63.0],
    [1.0, 0.0, 0.0, 0.0],
    [0.0, 0.0, 1.0, 0.0],
    [0.0, 0.0, 0.0, 1.0]
],
  "dcmmeta_shape": [64, 64, 40, 314],
  "dcmmeta_slice_dim": 2,
  "dcmmeta_version": 0.6,
  "global": {
    "const": {
      "AcquisitionMatrix": [64, 0, 0, 64],
      "AngioFlag": "N",
      "BitsAllocated": 16,
      "BitsStored": 12,
      "Columns": 448,
      "EchoNumbers": 1,
      "EchoTime": 54.8,
      "EchoTrainLength": 1,
      "FlipAngle": 75.0,
      "HighBit": 11,
      "ImageOrientationPatient": [1.0, 0.0, 0.0, 0.0, 0.96029368399952, -0.278991111813],
      "ImagePositionPatient": [-717.5, -708.16310398133, 170.61699301083],
      "ImageType": [
        "ORIGINAL",
        "PRIMARY",
        "M",
        "MB",
        "ND",
        "MOSAIC"
],
      "ImagedNucleus": "1H",
      "ImagingFrequency": 63.639576,
      "InPlanePhaseEncodingDirection": "COL",
      "MRAcquisitionType": "2D",
      "MagneticFieldStrength": 1.5,
      "Manufacturer": "SIEMENS",
      "ManufacturerModelName": "Avanto",
      "Modality": "MR",
      "NumberOfAverages": 1.0,
      "NumberOfPhaseEncodingSteps": 64,
      "PercentPhaseFieldOfView": 100.0,
      "PercentSampling": 100.0,
      "PerformedProcedureStepStartTime": "172803.796000",
      "PhotometricInterpretation": "MONOCHROME2",
      "PixelBandwidth": 1474.0,
      "PixelRepresentation": 0,
      "PixelSpacing": [3.203125, 3.203125],
      "ProtocolName": "EcL4-3.2m-40-1474-1s-55e",
      "RepetitionTime": 1000.0,
      "Rows": 448,
      "SAR": 0.03597386037925,
      "SamplesPerPixel": 1,
      "ScanOptions": "FS",
      "ScanningSequence": "EP",
      "SequenceName": "epfid2d1_64",
      "SequenceVariant": [
        "SK",
        "SS"
],
      "SeriesDescription": "EcL4-3.2m-40-1474-1s-55e",
      "SeriesNumber": 3,
      "SeriesTime": "173136.656000",
      "SliceLocation": -33.728790953374,
      "SliceThickness": 3.2000000476837,
      "SmallestImagePixelValue": 0,
      "SoftwareVersions": "syngo MR B17",
      "SpacingBetweenSlices": 3.2000000010849,
      "SpecificCharacterSet": "ISO_IR 100",
      "StudyID": "1",
      "StudyTime": "172803.734000",
      "TransmitCoilName": "Body",
      "VariableFlipAngleFlag": "N",
      "WindowCenterWidthExplanation": "Algo1",
      "dBdt": 0.0},
    "slices": {}
  },
  "time": {
    "samples": {
      "AcquisitionNumber": [1, 2, 3, 4, 5, 6, 7, 8, 9, 10, 11, 12, 13, 14, 15, 16, 17, 18, 19, 20, 21, 22, 23, 24, 25, 26, 27, 28, 29, 30, 31, 32, 33, 34, 35, 36, 37, 38, 39, 40, 41, 42, 43, 44, 45, 46, 47, 48, 49, 50, 51, 52, 53, 54, 55, 56, 57, 58, 59, 60, 61, 62, 63, 64, 65, 66, 67, 68, 69, 70, 71, 72, 73, 74, 75, 76, 77, 78, 79, 80, 81, 82, 83, 84, 85, 86, 87, 88, 89, 90, 91, 92, 93, 94, 95, 96, 97, 98, 99, 100, 101, 102, 103, 104, 105, 106, 107, 108, 109, 110, 111, 112, 113, 114, 115, 116, 117, 118, 119, 120, 121, 122, 123, 124, 125, 126, 127, 128, 129, 130, 131, 132, 133, 134, 135, 136, 137, 138, 139, 140, 141, 142, 143, 144, 145, 146, 147, 148, 149, 150, 151, 152, 153, 154, 155, 156, 157, 158, 159, 160, 161, 162, 163, 164, 165, 166, 167, 168, 169, 170, 171, 172, 173, 174, 175, 176, 177, 178, 179, 180, 181, 182, 183, 184, 185, 186, 187, 188, 189, 190, 191, 192, 193, 194, 195, 196, 197, 198, 199, 200, 201, 202, 203, 204, 205, 206, 207, 208, 209, 210, 211, 212, 213, 214, 215, 216, 217, 218, 219, 220, 221, 222, 223, 224, 225, 226, 227, 228, 229, 230, 231, 232, 233, 234, 235, 236, 237, 238, 239, 240, 241, 242, 243, 244, 245, 246, 247, 248, 249, 250, 251, 252, 253, 254, 255, 256, 257, 258, 259, 260, 261, 262, 263, 264, 265, 266, 267, 268, 269, 270, 271, 272, 273, 274, 275, 276, 277, 278, 279, 280, 281, 282, 283, 284, 285, 286, 287, 288, 289, 290, 291, 292, 293, 294, 295, 296, 297, 298, 299, 300, 301, 302, 303, 304, 305, 306, 307, 308, 309, 310, 311, 312, 313, 314],
      "AcquisitionTime": ["173053.117500", "173054.122500", "173055.125000", "173056.130000", "173057.135000", "173058.137500", "173059.142500", "173100.145000", "173101.150000", "173102.155000", "173103.157500", "173104.162500", "173105.165000", "173106.170000", "173107.175000", "173108.177500", "173109.182500", "173110.185000", "173111.190000", "173112.195000", "173113.197500", "173114.202500", "173115.205000", "173116.210000", "173117.215000", "173118.217500", "173119.222500", "173120.227500", "173121.230000", "173122.235000", "173123.237500", "173124.242500", "173125.247500", "173126.250000", "173127.255000", "173128.257500", "173129.262500", "173130.267500", "173131.270000", "173132.275000", "173133.277500", "173134.282500", "173135.287500", "173136.290000", "173137.295000", "173138.297500", "173139.302500", "173140.307500", "173141.310000", "173142.315000", "173143.317500", "173144.322500", "173145.327500", "173146.330000", "173147.335000", "173148.340000", "173149.342500", "173150.347500", "173151.350000", "173152.355000", "173153.360000", "173154.362500", "173155.367500", "173156.370000", "173157.375000", "173158.380000", "173159.382500", "173200.387500", "173201.390000", "173202.395000", "173203.400000", "173204.402500", "173205.407500", "173206.410000", "173207.415000", "173208.420000", "173209.422500", "173210.427500", "173211.430000", "173212.435000", "173213.440000", "173214.442500", "173215.447500", "173216.450000", "173217.455000", "173218.460000", "173219.462500", "173220.467500", "173221.472500", "173222.475000", "173223.480000", "173224.482500", "173225.487500", "173226.492500", "173227.495000", "173228.500000", "173229.502500", "173230.507500", "173231.512500", "173232.515000", "173233.520000", "173234.522500", "173235.527500", "173236.532500", "173237.535000", "173238.540000", "173239.542500", "173240.547500", "173241.552500", "173242.555000", "173243.560000", "173244.562500", "173245.567500", "173246.572500", "173247.575000", "173248.580000", "173249.585000", "173250.587500", "173251.592500", "173252.595000", "173253.600000", "173254.605000", "173255.607500", "173256.612500", "173257.615000", "173258.620000", "173259.625000", "173300.627500", "173301.632500", "173302.635000", "173303.640000", "173304.645000", "173305.647500", "173306.652500", "173307.655000", "173308.660000", "173309.665000", "173310.667500", "173311.672500", "173312.675000", "173313.680000", "173314.685000", "173315.687500", "173316.692500", "173317.695000", "173318.700000", "173319.705000", "173320.707500", "173321.712500", "173322.717500", "173323.720000", "173324.725000", "173325.727500", "173326.732500", "173327.737500", "173328.740000", "173329.745000", "173330.747500", "173331.752500", "173332.757500", "173333.760000", "173334.765000", "173335.767500", "173336.772500", "173337.777500", "173338.780000", "173339.785000", "173340.787500", "173341.792500", "173342.797500", "173343.800000", "173344.805000", "173345.807500", "173346.812500", "173347.817500", "173348.820000", "173349.825000", "173350.827500", "173351.832500", "173352.837500", "173353.840000", "173354.845000", "173355.850000", "173356.852500", "173357.857500", "173358.860000", "173359.865000", "173400.870000", "173401.872500", "173402.877500", "173403.880000", "173404.885000", "173405.890000", "173406.892500", "173407.897500", "173408.900000", "173409.905000", "173410.910000", "173411.912500", "173412.917500", "173413.920000", "173414.925000", "173415.930000", "173416.932500", "173417.937500", "173418.940000", "173419.945000", "173420.950000", "173421.952500", "173422.957500", "173423.962500", "173424.965000", "173425.970000", "173426.972500", "173427.977500", "173428.982500", "173429.985000", "173430.990000", "173431.992500", "173432.997500", "173434.002500", "173435.005000", "173436.010000", "173437.012500", "173438.017500", "173439.022500", "173440.025000", "173441.030000", "173442.032500", "173443.037500", "173444.042500", "173445.045000", "173446.050000", "173447.052500", "173448.057500", "173449.062500", "173450.065000", "173451.070000", "173452.072500", "173453.077500", "173454.082500", "173455.085000", "173456.090000", "173457.095000", "173458.097500", "173459.102500", "173500.105000", "173501.110000", "173502.115000", "173503.117500", "173504.122500", "173505.125000", "173506.130000", "173507.135000", "173508.137500", "173509.142500", "173510.145000", "173511.150000", "173512.155000", "173513.157500", "173514.162500", "173515.165000", "173516.170000", "173517.175000", "173518.177500", "173519.182500", "173520.185000", "173521.190000", "173522.195000", "173523.197500", "173524.202500", "173525.205000", "173526.210000", "173527.215000", "173528.217500", "173529.222500", "173530.227500", "173531.230000", "173532.235000", "173533.237500", "173534.242500", "173535.247500", "173536.250000", "173537.255000", "173538.257500", "173539.262500", "173540.267500", "173541.270000", "173542.275000", "173543.277500", "173544.282500", "173545.287500", "173546.290000", "173547.295000", "173548.297500", "173549.302500", "173550.307500", "173551.310000", "173552.315000", "173553.317500", "173554.322500", "173555.327500", "173556.330000", "173557.335000", "173558.340000", "173559.342500", "173600.347500", "173601.350000", "173602.355000", "173603.360000", "173604.362500", "173605.367500", "173606.370000", "173607.375000"],
      "ContentTime": ["173136.656000", "173136.687000", "173136.687000", "173136.687000", "173136.703000", "173136.703000", "173136.703000", "173136.703000", "173136.703000", "173136.718000", "173136.718000", "173136.718000", "173136.718000", "173136.718000", "173136.718000", "173136.718000", "173136.734000", "173136.734000", "173136.734000", "173136.734000", "173136.734000", "173136.734000", "173136.750000", "173136.750000", "173136.750000", "173136.750000", "173136.750000", "173136.750000", "173136.750000", "173136.765000", "173136.765000", "173136.765000", "173136.765000", "173136.781000", "173136.781000", "173156.625000", "173156.625000", "173156.625000", "173156.640000", "173156.640000", "173156.640000", "173156.640000", "173156.640000", "173156.656000", "173156.656000", "173156.656000", "173156.656000", "173156.656000", "173156.656000", "173156.671000", "173156.671000", "173156.671000", "173156.671000", "173156.671000", "173156.687000", "173156.687000", "173156.687000", "173156.687000", "173156.687000", "173156.687000", "173156.703000", "173156.703000", "173216.625000", "173216.625000", "173216.625000", "173216.640000", "173216.640000", "173216.640000", "173216.640000", "173216.640000", "173216.640000", "173216.640000", "173216.656000", "173216.656000", "173216.656000", "173216.671000", "173216.671000", "173216.671000", "173216.671000", "173216.671000", "173216.671000", "173216.671000", "173236.625000", "173236.625000", "173236.625000", "173236.640000", "173236.640000", "173236.640000", "173236.640000", "173236.640000", "173236.656000", "173236.656000", "173236.656000", "173236.656000", "173236.656000", "173236.671000", "173236.671000", "173236.671000", "173236.671000", "173236.671000", "173236.671000", "173236.671000", "173256.625000", "173256.625000", "173256.625000", "173256.640000", "173256.640000", "173256.640000", "173256.640000", "173256.656000", "173256.656000", "173256.656000", "173256.656000", "173256.656000", "173256.656000", "173256.671000", "173256.671000", "173256.671000", "173256.671000", "173256.671000", "173256.687000", "173256.687000", "173316.625000", "173316.625000", "173316.625000", "173316.640000", "173316.640000", "173316.640000", "173316.640000", "173316.656000", "173316.656000", "173316.656000", "173316.656000", "173316.656000", "173316.656000", "173316.671000", "173316.671000", "173316.671000", "173316.671000", "173316.671000", "173316.671000", "173316.671000", "173336.625000", "173336.625000", "173336.625000", "173336.640000", "173336.640000", "173336.656000", "173336.656000", "173336.656000", "173336.656000", "173336.656000", "173336.656000", "173336.671000", "173336.671000", "173336.671000", "173336.671000", "173336.671000", "173336.671000", "173336.687000", "173336.687000", "173336.687000", "173356.625000", "173356.625000", "173356.625000", "173356.640000", "173356.656000", "173356.656000", "173356.671000", "173356.671000", "173356.671000", "173356.671000", "173356.671000", "173356.687000", "173356.687000", "173356.687000", "173356.687000", "173356.687000", "173356.687000", "173356.687000", "173356.703000", "173356.703000", "173416.625000", "173416.625000", "173416.625000", "173416.640000", "173416.640000", "173416.640000", "173416.640000", "173416.640000", "173416.640000", "173416.640000", "173416.656000", "173416.656000", "173416.656000", "173416.671000", "173416.671000", "173416.671000", "173416.671000", "173416.671000", "173416.671000", "173416.671000", "173436.625000", "173436.625000", "173436.625000", "173436.640000", "173436.640000", "173436.640000", "173436.640000", "173436.640000", "173436.640000", "173436.640000", "173436.656000", "173436.656000", "173436.656000", "173436.656000", "173436.656000", "173436.656000", "173436.671000", "173436.671000", "173436.671000", "173436.671000", "173456.625000", "173456.625000", "173456.625000", "173456.640000", "173456.640000", "173456.640000", "173456.640000", "173456.640000", "173456.640000", "173456.656000", "173456.656000", "173456.656000", "173456.656000", "173456.656000", "173456.656000", "173456.656000", "173456.671000", "173456.671000", "173456.671000", "173456.671000", "173516.625000", "173516.625000", "173516.625000", "173516.640000", "173516.640000", "173516.640000", "173516.640000", "173516.640000", "173516.640000", "173516.640000", "173516.656000", "173516.656000", "173516.656000", "173516.671000", "173516.671000", "173516.671000", "173516.671000", "173516.671000", "173516.671000", "173516.687000", "173536.625000", "173536.625000", "173536.625000", "173536.640000", "173536.640000", "173536.640000", "173536.640000", "173536.640000", "173536.640000", "173536.640000", "173536.656000", "173536.656000", "173536.671000", "173536.671000", "173536.671000", "173536.687000", "173536.687000", "173536.687000", "173536.687000", "173536.687000", "173556.625000", "173556.625000", "173556.640000", "173556.640000", "173556.640000", "173556.640000", "173556.640000", "173556.640000", "173556.640000", "173556.656000", "173556.656000", "173556.656000", "173556.656000", "173556.671000", "173556.671000", "173556.671000", "173556.671000", "173556.671000", "173556.671000", "173556.671000", "173608.359000", "173608.375000", "173608.375000", "173608.375000", "173608.390000", "173608.390000", "173608.390000", "173608.390000", "173608.390000", "173608.406000", "173608.421000", "173608.421000"],
      "InstanceCreationTime": ["173136.656000", "173136.687000", "173136.687000", "173136.687000", "173136.703000", "173136.703000", "173136.703000", "173136.703000", "173136.703000", "173136.718000", "173136.718000", "173136.718000", "173136.718000", "173136.718000", "173136.718000", "173136.718000", "173136.734000", "173136.734000", "173136.734000", "173136.734000", "173136.734000", "173136.734000", "173136.750000", "173136.750000", "173136.750000", "173136.750000", "173136.750000", "173136.750000", "173136.750000", "173136.765000", "173136.765000", "173136.765000", "173136.765000", "173136.781000", "173136.781000", "173156.625000", "173156.625000", "173156.625000", "173156.640000", "173156.640000", "173156.640000", "173156.640000", "173156.640000", "173156.656000", "173156.656000", "173156.656000", "173156.656000", "173156.656000", "173156.656000", "173156.671000", "173156.671000", "173156.671000", "173156.671000", "173156.671000", "173156.687000", "173156.687000", "173156.687000", "173156.687000", "173156.687000", "173156.687000", "173156.703000", "173156.703000", "173216.625000", "173216.625000", "173216.625000", "173216.640000", "173216.640000", "173216.640000", "173216.640000", "173216.640000", "173216.640000", "173216.640000", "173216.656000", "173216.656000", "173216.656000", "173216.671000", "173216.671000", "173216.671000", "173216.671000", "173216.671000", "173216.671000", "173216.671000", "173236.625000", "173236.625000", "173236.625000", "173236.640000", "173236.640000", "173236.640000", "173236.640000", "173236.640000", "173236.656000", "173236.656000", "173236.656000", "173236.656000", "173236.656000", "173236.671000", "173236.671000", "173236.671000", "173236.671000", "173236.671000", "173236.671000", "173236.671000", "173256.625000", "173256.625000", "173256.625000", "173256.640000", "173256.640000", "173256.640000", "173256.640000", "173256.656000", "173256.656000", "173256.656000", "173256.656000", "173256.656000", "173256.656000", "173256.671000", "173256.671000", "173256.671000", "173256.671000", "173256.671000", "173256.687000", "173256.687000", "173316.625000", "173316.625000", "173316.625000", "173316.640000", "173316.640000", "173316.640000", "173316.640000", "173316.656000", "173316.656000", "173316.656000", "173316.656000", "173316.656000", "173316.656000", "173316.671000", "173316.671000", "173316.671000", "173316.671000", "173316.671000", "173316.671000", "173316.671000", "173336.625000", "173336.625000", "173336.625000", "173336.640000", "173336.640000", "173336.656000", "173336.656000", "173336.656000", "173336.656000", "173336.656000", "173336.656000", "173336.671000", "173336.671000", "173336.671000", "173336.671000", "173336.671000", "173336.671000", "173336.687000", "173336.687000", "173336.687000", "173356.625000", "173356.625000", "173356.625000", "173356.640000", "173356.656000", "173356.656000", "173356.671000", "173356.671000", "173356.671000", "173356.671000", "173356.671000", "173356.687000", "173356.687000", "173356.687000", "173356.687000", "173356.687000", "173356.687000", "173356.687000", "173356.703000", "173356.703000", "173416.625000", "173416.625000", "173416.625000", "173416.640000", "173416.640000", "173416.640000", "173416.640000", "173416.640000", "173416.640000", "173416.640000", "173416.656000", "173416.656000", "173416.656000", "173416.671000", "173416.671000", "173416.671000", "173416.671000", "173416.671000", "173416.671000", "173416.671000", "173436.625000", "173436.625000", "173436.625000", "173436.640000", "173436.640000", "173436.640000", "173436.640000", "173436.640000", "173436.640000", "173436.640000", "173436.656000", "173436.656000", "173436.656000", "173436.656000", "173436.656000", "173436.656000", "173436.671000", "173436.671000", "173436.671000", "173436.671000", "173456.625000", "173456.625000", "173456.625000", "173456.640000", "173456.640000", "173456.640000", "173456.640000", "173456.640000", "173456.640000", "173456.656000", "173456.656000", "173456.656000", "173456.656000", "173456.656000", "173456.656000", "173456.656000", "173456.671000", "173456.671000", "173456.671000", "173456.671000", "173516.625000", "173516.625000", "173516.625000", "173516.640000", "173516.640000", "173516.640000", "173516.640000", "173516.640000", "173516.640000", "173516.640000", "173516.656000", "173516.656000", "173516.656000", "173516.671000", "173516.671000", "173516.671000", "173516.671000", "173516.671000", "173516.671000", "173516.687000", "173536.625000", "173536.625000", "173536.625000", "173536.640000", "173536.640000", "173536.640000", "173536.640000", "173536.640000", "173536.640000", "173536.640000", "173536.656000", "173536.656000", "173536.671000", "173536.671000", "173536.671000", "173536.687000", "173536.687000", "173536.687000", "173536.687000", "173536.687000", "173556.625000", "173556.625000", "173556.640000", "173556.640000", "173556.640000", "173556.640000", "173556.640000", "173556.640000", "173556.640000", "173556.656000", "173556.656000", "173556.656000", "173556.656000", "173556.671000", "173556.671000", "173556.671000", "173556.671000", "173556.671000", "173556.671000", "173556.671000", "173608.359000", "173608.375000", "173608.375000", "173608.375000", "173608.390000", "173608.390000", "173608.390000", "173608.390000", "173608.390000", "173608.406000", "173608.421000", "173608.421000"],
      "InstanceNumber": [1, 2, 3, 4, 5, 6, 7, 8, 9, 10, 11, 12, 13, 14, 15, 16, 17, 18, 19, 20, 21, 22, 23, 24, 25, 26, 27, 28, 29, 30, 31, 32, 33, 34, 35, 36, 37, 38, 39, 40, 41, 42, 43, 44, 45, 46, 47, 48, 49, 50, 51, 52, 53, 54, 55, 56, 57, 58, 59, 60, 61, 62, 63, 64, 65, 66, 67, 68, 69, 70, 71, 72, 73, 74, 75, 76, 77, 78, 79, 80, 81, 82, 83, 84, 85, 86, 87, 88, 89, 90, 91, 92, 93, 94, 95, 96, 97, 98, 99, 100, 101, 102, 103, 104, 105, 106, 107, 108, 109, 110, 111, 112, 113, 114, 115, 116, 117, 118, 119, 120, 121, 122, 123, 124, 125, 126, 127, 128, 129, 130, 131, 132, 133, 134, 135, 136, 137, 138, 139, 140, 141, 142, 143, 144, 145, 146, 147, 148, 149, 150, 151, 152, 153, 154, 155, 156, 157, 158, 159, 160, 161, 162, 163, 164, 165, 166, 167, 168, 169, 170, 171, 172, 173, 174, 175, 176, 177, 178, 179, 180, 181, 182, 183, 184, 185, 186, 187, 188, 189, 190, 191, 192, 193, 194, 195, 196, 197, 198, 199, 200, 201, 202, 203, 204, 205, 206, 207, 208, 209, 210, 211, 212, 213, 214, 215, 216, 217, 218, 219, 220, 221, 222, 223, 224, 225, 226, 227, 228, 229, 230, 231, 232, 233, 234, 235, 236, 237, 238, 239, 240, 241, 242, 243, 244, 245, 246, 247, 248, 249, 250, 251, 252, 253, 254, 255, 256, 257, 258, 259, 260, 261, 262, 263, 264, 265, 266, 267, 268, 269, 270, 271, 272, 273, 274, 275, 276, 277, 278, 279, 280, 281, 282, 283, 284, 285, 286, 287, 288, 289, 290, 291, 292, 293, 294, 295, 296, 297, 298, 299, 300, 301, 302, 303, 304, 305, 306, 307, 308, 309, 310, 311, 312, 313, 314],
      "LargestImagePixelValue": [1110, 1091, 1089, 1073, 1070, 1076, 1073, 1077, 1065, 1078, 1081, 1070, 1070, 1082, 1085, 1079, 1070, 1076, 1075, 1077, 1095, 1089, 1089, 1082, 1077, 1071, 1077, 1107, 1072, 1094, 1068, 1082, 1077, 1075, 1082, 1093, 1080, 1079, 1077, 1073, 1077, 1099, 1086, 1077, 1069, 1076, 1101, 1091, 1085, 1061, 1071, 1068, 1085, 1070, 1073, 1096, 1075, 1075, 1083, 1081, 1098, 1067, 1074, 1078, 1064, 1078, 1103, 1080, 1074, 1066, 1073, 1090, 1072, 1074, 1072, 1077, 1093, 1073, 1089, 1072, 976, 1051, 986, 1006, 1017, 1009, 1017, 1015, 1014, 1009, 1010, 1010, 1016, 1001, 1005, 1014, 1011, 1028, 1013, 999, 1006, 1019, 1000, 1009, 1012, 1005, 1024, 1007, 1007, 980, 982, 990, 980, 1015, 1007, 994, 1005, 1005, 1004, 1009, 1013, 1001, 1005, 1007, 1001, 1012, 1005, 994, 1003, 998, 1009, 1000, 1013, 1008, 996, 1009, 1013, 1008, 999, 995, 979, 1044, 980, 992, 989, 989, 1012, 990, 983, 998, 983, 982, 998, 985, 992, 999, 981, 983, 989, 989, 989, 991, 980, 984, 993, 985, 990, 999, 985, 991, 1000, 990, 990, 996, 992, 993, 991, 991, 995, 989, 1000, 1004, 996, 996, 996, 988, 997, 996, 996, 990, 989, 994, 1001, 996, 990, 1001, 1000, 997, 998, 999, 998, 1000, 1001, 993, 995, 995, 996, 1008, 988, 998, 1006, 987, 1015, 995, 998, 1001, 1002, 996, 995, 1004, 1017, 1015, 1003, 994, 1012, 1003, 999, 1013, 1008, 995, 1015, 1008, 998, 1016, 1023, 1008, 1014, 1006, 1014, 1009, 1015, 1003, 1005, 1002, 1003, 1019, 1024, 1077, 1022, 1020, 1012, 1101, 1091, 1053, 1060, 1022, 996, 981, 981, 980, 986, 986, 986, 986, 1021, 1013, 1044, 1027, 988, 1004, 975, 974, 967, 977, 974, 972, 969, 975, 975, 975, 981, 981, 983, 979, 982, 988, 984, 976, 976, 978, 982, 987, 981, 990, 982, 979, 989, 975, 981, 988, 985, 986, 976, 988, 982, 996, 997, 1000, 978, 989, 993, 987, 991, 996],
      "WindowCenter": [491.0, 491.0, 490.0, 490.0, 490.0, 490.0, 489.0, 489.0, 489.0, 489.0, 490.0, 489.0, 489.0, 490.0, 489.0, 490.0, 489.0, 489.0, 490.0, 490.0, 491.0, 491.0, 491.0, 491.0, 491.0, 491.0, 491.0, 491.0, 490.0, 490.0, 489.0, 489.0, 490.0, 490.0, 491.0, 491.0, 492.0, 490.0, 490.0, 490.0, 489.0, 491.0, 491.0, 490.0, 490.0, 489.0, 491.0, 491.0, 489.0, 489.0, 491.0, 490.0, 490.0, 490.0, 490.0, 491.0, 490.0, 489.0, 490.0, 491.0, 491.0, 490.0, 491.0, 491.0, 489.0, 490.0, 491.0, 490.0, 490.0, 491.0, 491.0, 491.0, 491.0, 492.0, 491.0, 491.0, 491.0, 490.0, 490.0, 490.0, 486.0, 492.0, 491.0, 490.0, 491.0, 491.0, 490.0, 491.0, 490.0, 491.0, 489.0, 490.0, 490.0, 490.0, 489.0, 490.0, 490.0, 491.0, 491.0, 490.0, 491.0, 490.0, 489.0, 491.0, 491.0, 491.0, 491.0, 491.0, 489.0, 491.0, 490.0, 491.0, 490.0, 492.0, 491.0, 490.0, 491.0, 490.0, 490.0, 489.0, 489.0, 490.0, 489.0, 489.0, 491.0, 490.0, 489.0, 490.0, 489.0, 490.0, 489.0, 489.0, 490.0, 491.0, 490.0, 491.0, 492.0, 490.0, 492.0, 490.0, 487.0, 494.0, 491.0, 492.0, 492.0, 491.0, 492.0, 491.0, 491.0, 491.0, 490.0, 490.0, 491.0, 490.0, 490.0, 491.0, 490.0, 490.0, 491.0, 491.0, 490.0, 491.0, 491.0, 490.0, 491.0, 490.0, 491.0, 492.0, 492.0, 492.0, 492.0, 491.0, 492.0, 492.0, 492.0, 492.0, 492.0, 492.0, 491.0, 491.0, 491.0, 492.0, 492.0, 492.0, 492.0, 492.0, 492.0, 492.0, 491.0, 492.0, 491.0, 492.0, 492.0, 493.0, 492.0, 492.0, 491.0, 491.0, 491.0, 491.0, 492.0, 491.0, 491.0, 492.0, 490.0, 491.0, 492.0, 492.0, 492.0, 491.0, 492.0, 491.0, 492.0, 491.0, 491.0, 492.0, 491.0, 491.0, 492.0, 492.0, 491.0, 492.0, 492.0, 492.0, 493.0, 491.0, 491.0, 493.0, 491.0, 492.0, 491.0, 492.0, 491.0, 492.0, 492.0, 492.0, 492.0, 491.0, 491.0, 492.0, 491.0, 491.0, 491.0, 492.0, 491.0, 492.0, 492.0, 490.0, 492.0, 492.0, 491.0, 485.0, 489.0, 488.0, 489.0, 486.0, 485.0, 485.0, 487.0, 487.0, 486.0, 487.0, 487.0, 487.0, 488.0, 488.0, 488.0, 487.0, 484.0, 487.0, 485.0, 486.0, 485.0, 486.0, 486.0, 486.0, 485.0, 486.0, 486.0, 488.0, 487.0, 487.0, 487.0, 487.0, 487.0, 488.0, 487.0, 487.0, 486.0, 486.0, 487.0, 487.0, 488.0, 488.0, 487.0, 487.0, 487.0, 487.0, 487.0, 487.0, 488.0, 487.0, 488.0, 487.0, 487.0, 488.0, 487.0, 488.0, 488.0, 490.0, 488.0, 488.0, 488.0, 488.0],
