{
  "AcquisitionMatrixPE": 64,
  "AcquisitionNumber": 1,
  "AcquisitionTime": "19:30:32.982500",
  "BandwidthPerPixelPhaseEncode": 19.531,
  "BaseResolution": 64,
  "CoilString": "C:HEA;HEP",
  "ConversionSoftware": "dcm2niix",
  "ConversionSoftwareVersion": "v1.0.20190902",
  "DerivedVendorReportedEchoSpacing": 0.00080001,
  "DeviceSerialNumber": "26099",
  "DwellTime": 5.3e-06,
  "EchoTime": 0.0548,
  "EffectiveEchoSpacing": 0.00080001,
  "FlipAngle": 75,
  "ImageComments": "Unaliased_MB4_PE3_LB_SENSE1",
  "ImageOrientationPatientDICOM": [1, 0, 0, 0, 0.943223, -0.332161],
  "ImageType": [
    "ORIGINAL",
    "PRIMARY",
    "M",
    "MB",
    "ND",
    "MOSAIC"
],
  "ImagingFrequency": 63.6394,
  "InPlanePhaseEncodingDirectionDICOM": "COL",
  "InstitutionAddress": "Bedford_Way_26_London_London_GB_WC1H_0AP",
  "InstitutionName": "University_College",
  "InstitutionalDepartmentName": "Department",
  "MRAcquisitionType": "2D",
  "MagneticFieldStrength": 1.5,
  "Manufacturer": "Siemens",
  "ManufacturersModelName": "Avanto",
  "Modality": "MR",
  "MultibandAccelerationFactor": 4,
  "PartialFourier": 1,
  "PatientPosition": "HFS",
  "PercentPhaseFOV": 100,
  "PhaseEncodingDirection": "j-",
  "PhaseEncodingSteps": 64,
  "PhaseResolution": 1,
  "PixelBandwidth": 1474,
  "ProcedureStepDescription": "ucl_bbk_Jeremy",
  "ProtocolName": "EcL4-3.2m-40-1474-1s-55e",
  "PulseSequenceDetails": "%CustomerSeq%_cmrr_mbep2d_bold",
  "ReceiveCoilName": "32Ch_Head",
  "ReconMatrixPE": 64,
  "RepetitionTime": 1,
  "SAR": 0.0439608,
  "ScanOptions": "FS",
  "ScanningSequence": "EP",
  "SequenceName": "epfid2d1_64",
  "SequenceVariant": "SK_SS",
  "SeriesDescription": "EcL4-3.2m-40-1474-1s-55e",
  "SeriesNumber": 8,
  "ShimSetting": [141, -29, 369, 1197, -182, 318, -330, -84],
  "SliceThickness": 3.2,
  "SliceTiming": [0, 0.7025, 0.4025, 0.1025, 0.805, 0.5025, 0.2025, 0.905, 0.6025, 0.3025, 0, 0.7025, 0.4025, 0.1025, 0.805, 0.5025, 0.2025, 0.905, 0.6025, 0.3025, 0, 0.7025, 0.4025, 0.1025, 0.805, 0.5025, 0.2025, 0.905, 0.6025, 0.3025, 0, 0.7025, 0.4025, 0.1025, 0.805, 0.5025, 0.2025, 0.905, 0.6025, 0.3025],
  "SoftwareVersions": "syngo_MR_B17",
  "SpacingBetweenSlices": 3.2,
  "StationName": "MRC26099",
  "TaskName": "citizenfour",
  "TotalReadoutTime": 0.0504006,
  "TxRefAmp": 218.143,
  "dcmmeta_affine": [
    [-3.203125, 0.0, 0.0, 102.5],
    [0.0, 3.0212600231170654, -1.0629156827926636, -71.1888656616211],
    [0.0, 1.0639536380767822, 3.018312454223633, -53.292442321777344],
    [0.0, 0.0, 0.0, 1.0]
],
  "dcmmeta_reorient_transform": [
    [0.0, -1.0, 0.0, 63.0],
    [1.0, 0.0, 0.0, 0.0],
    [0.0, 0.0, 1.0, 0.0],
    [0.0, 0.0, 0.0, 1.0]
],
  "dcmmeta_shape": [64, 64, 40, 1155],
  "dcmmeta_slice_dim": 2,
  "dcmmeta_version": 0.6,
  "global": {
    "const": {
      "AcquisitionMatrix": [64, 0, 0, 64],
      "AngioFlag": "N",
      "BitsAllocated": 16,
      "BitsStored": 12,
      "Columns": 448,
      "EchoNumbers": 1,
      "EchoTime": 54.8,
      "EchoTrainLength": 1,
      "FlipAngle": 75.0,
      "HighBit": 11,
      "ImageOrientationPatient": [1.0, 0.0, 0.0, 0.0, 0.94322265279987, -0.3321611465015],
      "ImagePositionPatient": [-717.5, -699.23244915417, 218.01574331183],
      "ImageType": [
        "ORIGINAL",
        "PRIMARY",
        "M",
        "MB",
        "ND",
        "MOSAIC"
],
      "ImagedNucleus": "1H",
      "ImagingFrequency": 63.639402,
      "InPlanePhaseEncodingDirection": "COL",
      "MRAcquisitionType": "2D",
      "MagneticFieldStrength": 1.5,
      "Manufacturer": "SIEMENS",
      "ManufacturerModelName": "Avanto",
      "Modality": "MR",
      "NumberOfAverages": 1.0,
      "NumberOfPhaseEncodingSteps": 64,
      "PercentPhaseFieldOfView": 100.0,
      "PercentSampling": 100.0,
      "PerformedProcedureStepStartTime": "174931.406000",
      "PhotometricInterpretation": "MONOCHROME2",
      "PixelBandwidth": 1474.0,
      "PixelRepresentation": 0,
      "PixelSpacing": [3.203125, 3.203125],
      "ProtocolName": "EcL4-3.2m-40-1474-1s-55e",
      "RepetitionTime": 1000.0,
      "Rows": 448,
      "SAR": 0.04396081461573,
      "SamplesPerPixel": 1,
      "ScanOptions": "FS",
      "ScanningSequence": "EP",
      "SequenceName": "epfid2d1_64",
      "SequenceVariant": [
        "SK",
        "SS"
],
      "SeriesDescription": "EcL4-3.2m-40-1474-1s-55e",
      "SeriesNumber": 8,
      "SeriesTime": "193116.078000",
      "SliceLocation": -26.620464223364,
      "SliceThickness": 3.2000000476837,
      "SmallestImagePixelValue": 0,
      "SoftwareVersions": "syngo MR B17",
      "SpacingBetweenSlices": 3.2000000848888,
      "SpecificCharacterSet": "ISO_IR 100",
      "StudyID": "1",
      "StudyTime": "174931.359000",
      "TransmitCoilName": "Body",
      "VariableFlipAngleFlag": "N",
      "WindowCenterWidthExplanation": "Algo1",
      "dBdt": 0.0},
    "slices": {}
  },
  "time": {
    "samples": {
      "AcquisitionNumber": [1, 2, 3, 4, 5, 6, 7, 8, 9, 10, 11, 12, 13, 14, 15, 16, 17, 18, 19, 20, 21, 22, 23, 24, 25, 26, 27, 28, 29, 30, 31, 32, 33, 34, 35, 36, 37, 38, 39, 40, 41, 42, 43, 44, 45, 46, 47, 48, 49, 50, 51, 52, 53, 54, 55, 56, 57, 58, 59, 60, 61, 62, 63, 64, 65, 66, 67, 68, 69, 70, 71, 72, 73, 74, 75, 76, 77, 78, 79, 80, 81, 82, 83, 84, 85, 86, 87, 88, 89, 90, 91, 92, 93, 94, 95, 96, 97, 98, 99, 100, 101, 102, 103, 104, 105, 106, 107, 108, 109, 110, 111, 112, 113, 114, 115, 116, 117, 118, 119, 120, 121, 122, 123, 124, 125, 126, 127, 128, 129, 130, 131, 132, 133, 134, 135, 136, 137, 138, 139, 140, 141, 142, 143, 144, 145, 146, 147, 148, 149, 150, 151, 152, 153, 154, 155, 156, 157, 158, 159, 160, 161, 162, 163, 164, 165, 166, 167, 168, 169, 170, 171, 172, 173, 174, 175, 176, 177, 178, 179, 180, 181, 182, 183, 184, 185, 186, 187, 188, 189, 190, 191, 192, 193, 194, 195, 196, 197, 198, 199, 200, 201, 202, 203, 204, 205, 206, 207, 208, 209, 210, 211, 212, 213, 214, 215, 216, 217, 218, 219, 220, 221, 222, 223, 224, 225, 226, 227, 228, 229, 230, 231, 232, 233, 234, 235, 236, 237, 238, 239, 240, 241, 242, 243, 244, 245, 246, 247, 248, 249, 250, 251, 252, 253, 254, 255, 256, 257, 258, 259, 260, 261, 262, 263, 264, 265, 266, 267, 268, 269, 270, 271, 272, 273, 274, 275, 276, 277, 278, 279, 280, 281, 282, 283, 284, 285, 286, 287, 288, 289, 290, 291, 292, 293, 294, 295, 296, 297, 298, 299, 300, 301, 302, 303, 304, 305, 306, 307, 308, 309, 310, 311, 312, 313, 314, 315, 316, 317, 318, 319, 320, 321, 322, 323, 324, 325, 326, 327, 328, 329, 330, 331, 332, 333, 334, 335, 336, 337, 338, 339, 340, 341, 342, 343, 344, 345, 346, 347, 348, 349, 350, 351, 352, 353, 354, 355, 356, 357, 358, 359, 360, 361, 362, 363, 364, 365, 366, 367, 368, 369, 370, 371, 372, 373, 374, 375, 376, 377, 378, 379, 380, 381, 382, 383, 384, 385, 386, 387, 388, 389, 390, 391, 392, 393, 394, 395, 396, 397, 398, 399, 400, 401, 402, 403, 404, 405, 406, 407, 408, 409, 410, 411, 412, 413, 414, 415, 416, 417, 418, 419, 420, 421, 422, 423, 424, 425, 426, 427, 428, 429, 430, 431, 432, 433, 434, 435, 436, 437, 438, 439, 440, 441, 442, 443, 444, 445, 446, 447, 448, 449, 450, 451, 452, 453, 454, 455, 456, 457, 458, 459, 460, 461, 462, 463, 464, 465, 466, 467, 468, 469, 470, 471, 472, 473, 474, 475, 476, 477, 478, 479, 480, 481, 482, 483, 484, 485, 486, 487, 488, 489, 490, 491, 492, 493, 494, 495, 496, 497, 498, 499, 500, 501, 502, 503, 504, 505, 506, 507, 508, 509, 510, 511, 512, 513, 514, 515, 516, 517, 518, 519, 520, 521, 522, 523, 524, 525, 526, 527, 528, 529, 530, 531, 532, 533, 534, 535, 536, 537, 538, 539, 540, 541, 542, 543, 544, 545, 546, 547, 548, 549, 550, 551, 552, 553, 554, 555, 556, 557, 558, 559, 560, 561, 562, 563, 564, 565, 566, 567, 568, 569, 570, 571, 572, 573, 574, 575, 576, 577, 578, 579, 580, 581, 582, 583, 584, 585, 586, 587, 588, 589, 590, 591, 592, 593, 594, 595, 596, 597, 598, 599, 600, 601, 602, 603, 604, 605, 606, 607, 608, 609, 610, 611, 612, 613, 614, 615, 616, 617, 618, 619, 620, 621, 622, 623, 624, 625, 626, 627, 628, 629, 630, 631, 632, 633, 634, 635, 636, 637, 638, 639, 640, 641, 642, 643, 644, 645, 646, 647, 648, 649, 650, 651, 652, 653, 654, 655, 656, 657, 658, 659, 660, 661, 662, 663, 664, 665, 666, 667, 668, 669, 670, 671, 672, 673, 674, 675, 676, 677, 678, 679, 680, 681, 682, 683, 684, 685, 686, 687, 688, 689, 690, 691, 692, 693, 694, 695, 696, 697, 698, 699, 700, 701, 702, 703, 704, 705, 706, 707, 708, 709, 710, 711, 712, 713, 714, 715, 716, 717, 718, 719, 720, 721, 722, 723, 724, 725, 726, 727, 728, 729, 730, 731, 732, 733, 734, 735, 736, 737, 738, 739, 740, 741, 742, 743, 744, 745, 746, 747, 748, 749, 750, 751, 752, 753, 754, 755, 756, 757, 758, 759, 760, 761, 762, 763, 764, 765, 766, 767, 768, 769, 770, 771, 772, 773, 774, 775, 776, 777, 778, 779, 780, 781, 782, 783, 784, 785, 786, 787, 788, 789, 790, 791, 792, 793, 794, 795, 796, 797, 798, 799, 800, 801, 802, 803, 804, 805, 806, 807, 808, 809, 810, 811, 812, 813, 814, 815, 816, 817, 818, 819, 820, 821, 822, 823, 824, 825, 826, 827, 828, 829, 830, 831, 832, 833, 834, 835, 836, 837, 838, 839, 840, 841, 842, 843, 844, 845, 846, 847, 848, 849, 850, 851, 852, 853, 854, 855, 856, 857, 858, 859, 860, 861, 862, 863, 864, 865, 866, 867, 868, 869, 870, 871, 872, 873, 874, 875, 876, 877, 878, 879, 880, 881, 882, 883, 884, 885, 886, 887, 888, 889, 890, 891, 892, 893, 894, 895, 896, 897, 898, 899, 900, 901, 902, 903, 904, 905, 906, 907, 908, 909, 910, 911, 912, 913, 914, 915, 916, 917, 918, 919, 920, 921, 922, 923, 924, 925, 926, 927, 928, 929, 930, 931, 932, 933, 934, 935, 936, 937, 938, 939, 940, 941, 942, 943, 944, 945, 946, 947, 948, 949, 950, 951, 952, 953, 954, 955, 956, 957, 958, 959, 960, 961, 962, 963, 964, 965, 966, 967, 968, 969, 970, 971, 972, 973, 974, 975, 976, 977, 978, 979, 980, 981, 982, 983, 984, 985, 986, 987, 988, 989, 990, 991, 992, 993, 994, 995, 996, 997, 998, 999, 1000, 1001, 1002, 1003, 1004, 1005, 1006, 1007, 1008, 1009, 1010, 1011, 1012, 1013, 1014, 1015, 1016, 1017, 1018, 1019, 1020, 1021, 1022, 1023, 1024, 1025, 1026, 1027, 1028, 1029, 1030, 1031, 1032, 1033, 1034, 1035, 1036, 1037, 1038, 1039, 1040, 1041, 1042, 1043, 1044, 1045, 1046, 1047, 1048, 1049, 1050, 1051, 1052, 1053, 1054, 1055, 1056, 1057, 1058, 1059, 1060, 1061, 1062, 1063, 1064, 1065, 1066, 1067, 1068, 1069, 1070, 1071, 1072, 1073, 1074, 1075, 1076, 1077, 1078, 1079, 1080, 1081, 1082, 1083, 1084, 1085, 1086, 1087, 1088, 1089, 1090, 1091, 1092, 1093, 1094, 1095, 1096, 1097, 1098, 1099, 1100, 1101, 1102, 1103, 1104, 1105, 1106, 1107, 1108, 1109, 1110, 1111, 1112, 1113, 1114, 1115, 1116, 1117, 1118, 1119, 1120, 1121, 1122, 1123, 1124, 1125, 1126, 1127, 1128, 1129, 1130, 1131, 1132, 1133, 1134, 1135, 1136, 1137, 1138, 1139, 1140, 1141, 1142, 1143, 1144, 1145, 1146, 1147, 1148, 1149, 1150, 1151, 1152, 1153, 1154, 1155],
      "AcquisitionTime": ["193032.982500", "193033.987500", "193034.992500", "193035.995000", "193037.000000", "193038.002500", "193039.007500", "193040.012500", "193041.015000", "193042.020000", "193043.022500", "193044.027500", "193045.032500", "193046.035000", "193047.040000", "193048.045000", "193049.047500", "193050.052500", "193051.055000", "193052.060000", "193053.065000", "193054.067500", "193055.072500", "193056.075000", "193057.080000", "193058.085000", "193059.087500", "193100.092500", "193101.095000", "193102.100000", "193103.105000", "193104.107500", "193105.112500", "193106.115000", "193107.120000", "193108.125000", "193109.127500", "193110.132500", "193111.135000", "193112.140000", "193113.145000", "193114.147500", "193115.152500", "193116.155000", "193117.160000", "193118.165000", "193119.167500", "193120.172500", "193121.177500", "193122.180000", "193123.185000", "193124.187500", "193125.192500", "193126.197500", "193127.200000", "193128.205000", "193129.207500", "193130.212500", "193131.217500", "193132.220000", "193133.225000", "193134.227500", "193135.232500", "193136.237500", "193137.240000", "193138.245000", "193139.247500", "193140.252500", "193141.257500", "193142.260000", "193143.265000", "193144.267500", "193145.272500", "193146.277500", "193147.280000", "193148.285000", "193149.290000", "193150.292500", "193151.297500", "193152.300000", "193153.305000", "193154.310000", "193155.312500", "193156.317500", "193157.320000", "193158.325000", "193159.330000", "193200.332500", "193201.337500", "193202.340000", "193203.345000", "193204.350000", "193205.352500", "193206.357500", "193207.360000", "193208.365000", "193209.370000", "193210.372500", "193211.377500", "193212.380000", "193213.385000", "193214.390000", "193215.392500", "193216.397500", "193217.400000", "193218.405000", "193219.410000", "193220.412500", "193221.417500", "193222.422500", "193223.425000", "193224.430000", "193225.432500", "193226.437500", "193227.442500", "193228.445000", "193229.450000", "193230.452500", "193231.457500", "193232.462500", "193233.465000", "193234.470000", "193235.472500", "193236.477500", "193237.482500", "193238.485000", "193239.490000", "193240.492500", "193241.497500", "193242.502500", "193243.505000", "193244.510000", "193245.512500", "193246.517500", "193247.522500", "193248.525000", "193249.530000", "193250.532500", "193251.537500", "193252.542500", "193253.545000", "193254.550000", "193255.555000", "193256.557500", "193257.562500", "193258.565000", "193259.570000", "193300.575000", "193301.577500", "193302.582500", "193303.585000", "193304.590000", "193305.595000", "193306.597500", "193307.602500", "193308.605000", "193309.610000", "193310.615000", "193311.617500", "193312.622500", "193313.625000", "193314.630000", "193315.635000", "193316.637500", "193317.642500", "193318.645000", "193319.650000", "193320.655000", "193321.657500", "193322.662500", "193323.667500", "193324.670000", "193325.675000", "193326.677500", "193327.682500", "193328.687500", "193329.690000", "193330.695000", "193331.697500", "193332.702500", "193333.707500", "193334.710000", "193335.715000", "193336.717500", "193337.722500", "193338.727500", "193339.730000", "193340.735000", "193341.737500", "193342.742500", "193343.747500", "193344.750000", "193345.755000", "193346.757500", "193347.762500", "193348.767500", "193349.770000", "193350.775000", "193351.777500", "193352.782500", "193353.787500", "193354.790000", "193355.795000", "193356.800000", "193357.802500", "193358.807500", "193359.810000", "193400.815000", "193401.820000", "193402.822500", "193403.827500", "193404.830000", "193405.835000", "193406.840000", "193407.842500", "193408.847500", "193409.850000", "193410.855000", "193411.860000", "193412.862500", "193413.867500", "193414.870000", "193415.875000", "193416.880000", "193417.882500", "193418.887500", "193419.890000", "193420.895000", "193421.900000", "193422.902500", "193423.907500", "193424.912500", "193425.915000", "193426.920000", "193427.922500", "193428.927500", "193429.932500", "193430.935000", "193431.940000", "193432.942500", "193433.947500", "193434.952500", "193435.955000", "193436.960000", "193437.962500", "193438.967500", "193439.972500", "193440.975000", "193441.980000", "193442.982500", "193443.987500", "193444.992500", "193445.995000", "193447.000000", "193448.002500", "193449.007500", "193450.012500", "193451.015000", "193452.020000", "193453.022500", "193454.027500", "193455.032500", "193456.035000", "193457.040000", "193458.045000", "193459.047500", "193500.052500", "193501.055000", "193502.060000", "193503.065000", "193504.067500", "193505.072500", "193506.075000", "193507.080000", "193508.085000", "193509.087500", "193510.092500", "193511.095000", "193512.100000", "193513.105000", "193514.107500", "193515.112500", "193516.115000", "193517.120000", "193518.125000", "193519.127500", "193520.132500", "193521.135000", "193522.140000", "193523.145000", "193524.147500", "193525.152500", "193526.155000", "193527.160000", "193528.165000", "193529.167500", "193530.172500", "193531.177500", "193532.180000", "193533.185000", "193534.187500", "193535.192500", "193536.197500", "193537.200000", "193538.205000", "193539.207500", "193540.212500", "193541.217500", "193542.220000", "193543.225000", "193544.227500", "193545.232500", "193546.237500", "193547.240000", "193548.245000", "193549.247500", "193550.252500", "193551.257500", "193552.260000", "193553.265000", "193554.267500", "193555.272500", "193556.277500", "193557.280000", "193558.285000", "193559.290000", "193600.292500", "193601.297500", "193602.300000", "193603.305000", "193604.310000", "193605.312500", "193606.317500", "193607.320000", "193608.325000", "193609.330000", "193610.332500", "193611.337500", "193612.340000", "193613.345000", "193614.350000", "193615.352500", "193616.357500", "193617.360000", "193618.365000", "193619.370000", "193620.372500", "193621.377500", "193622.380000", "193623.385000", "193624.390000", "193625.392500", "193626.397500", "193627.400000", "193628.405000", "193629.410000", "193630.412500", "193631.417500", "193632.422500", "193633.425000", "193634.430000", "193635.432500", "193636.437500", "193637.442500", "193638.445000", "193639.450000", "193640.452500", "193641.457500", "193642.462500", "193643.465000", "193644.470000", "193645.472500", "193646.477500", "193647.482500", "193648.485000", "193649.490000", "193650.492500", "193651.497500", "193652.502500", "193653.505000", "193654.510000", "193655.512500", "193656.517500", "193657.522500", "193658.525000", "193659.530000", "193700.532500", "193701.537500", "193702.542500", "193703.545000", "193704.550000", "193705.555000", "193706.557500", "193707.562500", "193708.565000", "193709.570000", "193710.575000", "193711.577500", "193712.582500", "193713.585000", "193714.590000", "193715.595000", "193716.597500", "193717.602500", "193718.605000", "193719.610000", "193720.615000", "193721.617500", "193722.622500", "193723.625000", "193724.630000", "193725.635000", "193726.637500", "193727.642500", "193728.645000", "193729.650000", "193730.655000", "193731.657500", "193732.662500", "193733.667500", "193734.670000", "193735.675000", "193736.677500", "193737.682500", "193738.687500", "193739.690000", "193740.695000", "193741.697500", "193742.702500", "193743.707500", "193744.710000", "193745.715000", "193746.717500", "193747.722500", "193748.727500", "193749.730000", "193750.735000", "193751.737500", "193752.742500", "193753.747500", "193754.750000", "193755.755000", "193756.757500", "193757.762500", "193758.767500", "193759.770000", "193800.775000", "193801.777500", "193802.782500", "193803.787500", "193804.790000", "193805.795000", "193806.800000", "193807.802500", "193808.807500", "193809.810000", "193810.815000", "193811.820000", "193812.822500", "193813.827500", "193814.830000", "193815.835000", "193816.840000", "193817.842500", "193818.847500", "193819.850000", "193820.855000", "193821.860000", "193822.862500", "193823.867500", "193824.870000", "193825.875000", "193826.880000", "193827.882500", "193828.887500", "193829.890000", "193830.895000", "193831.900000", "193832.902500", "193833.907500", "193834.912500", "193835.915000", "193836.920000", "193837.922500", "193838.927500", "193839.932500", "193840.935000", "193841.940000", "193842.942500", "193843.947500", "193844.952500", "193845.955000", "193846.960000", "193847.962500", "193848.967500", "193849.972500", "193850.975000", "193851.980000", "193852.982500", "193853.987500", "193854.992500", "193855.995000", "193857.000000", "193858.002500", "193859.007500", "193900.012500", "193901.015000", "193902.020000", "193903.022500", "193904.027500", "193905.032500", "193906.035000", "193907.040000", "193908.045000", "193909.047500", "193910.052500", "193911.055000", "193912.060000", "193913.065000", "193914.067500", "193915.072500", "193916.075000", "193917.080000", "193918.085000", "193919.087500", "193920.092500", "193921.095000", "193922.100000", "193923.105000", "193924.107500", "193925.112500", "193926.115000", "193927.120000", "193928.125000", "193929.127500", "193930.132500", "193931.135000", "193932.140000", "193933.145000", "193934.147500", "193935.152500", "193936.155000", "193937.160000", "193938.165000", "193939.167500", "193940.172500", "193941.177500", "193942.180000", "193943.185000", "193944.187500", "193945.192500", "193946.197500", "193947.200000", "193948.205000", "193949.207500", "193950.212500", "193951.217500", "193952.220000", "193953.225000", "193954.227500", "193955.232500", "193956.237500", "193957.240000", "193958.245000", "193959.247500", "194000.252500", "194001.257500", "194002.260000", "194003.265000", "194004.267500", "194005.272500", "194006.277500", "194007.280000", "194008.285000", "194009.290000", "194010.292500", "194011.297500", "194012.300000", "194013.305000", "194014.310000", "194015.312500", "194016.317500", "194017.320000", "194018.325000", "194019.330000", "194020.332500", "194021.337500", "194022.340000", "194023.345000", "194024.350000", "194025.352500", "194026.357500", "194027.360000", "194028.365000", "194029.370000", "194030.372500", "194031.377500", "194032.380000", "194033.385000", "194034.390000", "194035.392500", "194036.397500", "194037.400000", "194038.405000", "194039.410000", "194040.412500", "194041.417500", "194042.422500", "194043.425000", "194044.430000", "194045.432500", "194046.437500", "194047.442500", "194048.445000", "194049.450000", "194050.452500", "194051.457500", "194052.462500", "194053.465000", "194054.470000", "194055.472500", "194056.477500", "194057.482500", "194058.485000", "194059.490000", "194100.492500", "194101.497500", "194102.502500", "194103.505000", "194104.510000", "194105.512500", "194106.517500", "194107.522500", "194108.525000", "194109.530000", "194110.532500", "194111.537500", "194112.542500", "194113.545000", "194114.550000", "194115.555000", "194116.557500", "194117.562500", "194118.565000", "194119.570000", "194120.575000", "194121.577500", "194122.582500", "194123.585000", "194124.590000", "194125.595000", "194126.597500", "194127.602500", "194128.605000", "194129.610000", "194130.615000", "194131.617500", "194132.622500", "194133.625000", "194134.630000", "194135.635000", "194136.637500", "194137.642500", "194138.645000", "194139.650000", "194140.655000", "194141.657500", "194142.662500", "194143.667500", "194144.670000", "194145.675000", "194146.677500", "194147.682500", "194148.687500", "194149.690000", "194150.695000", "194151.697500", "194152.702500", "194153.707500", "194154.710000", "194155.715000", "194156.717500", "194157.722500", "194158.727500", "194159.730000", "194200.735000", "194201.737500", "194202.742500", "194203.747500", "194204.750000", "194205.755000", "194206.757500", "194207.762500", "194208.767500", "194209.770000", "194210.775000", "194211.777500", "194212.782500", "194213.787500", "194214.790000", "194215.795000", "194216.800000", "194217.802500", "194218.807500", "194219.810000", "194220.815000", "194221.820000", "194222.822500", "194223.827500", "194224.830000", "194225.835000", "194226.840000", "194227.842500", "194228.847500", "194229.850000", "194230.855000", "194231.860000", "194232.862500", "194233.867500", "194234.870000", "194235.875000", "194236.880000", "194237.882500", "194238.887500", "194239.890000", "194240.895000", "194241.900000", "194242.902500", "194243.907500", "194244.912500", "194245.915000", "194246.920000", "194247.922500", "194248.927500", "194249.932500", "194250.935000", "194251.940000", "194252.942500", "194253.947500", "194254.952500", "194255.955000", "194256.960000", "194257.962500", "194258.967500", "194259.972500", "194300.975000", "194301.980000", "194302.982500", "194303.987500", "194304.992500", "194305.995000", "194307.000000", "194308.002500", "194309.007500", "194310.012500", "194311.015000", "194312.020000", "194313.022500", "194314.027500", "194315.032500", "194316.035000", "194317.040000", "194318.045000", "194319.047500", "194320.052500", "194321.055000", "194322.060000", "194323.065000", "194324.067500", "194325.072500", "194326.075000", "194327.080000", "194328.085000", "194329.087500", "194330.092500", "194331.095000", "194332.100000", "194333.105000", "194334.107500", "194335.112500", "194336.115000", "194337.120000", "194338.125000", "194339.127500", "194340.132500", "194341.135000", "194342.140000", "194343.145000", "194344.147500", "194345.152500", "194346.155000", "194347.160000", "194348.165000", "194349.167500", "194350.172500", "194351.177500", "194352.180000", "194353.185000", "194354.187500", "194355.192500", "194356.197500", "194357.200000", "194358.205000", "194359.207500", "194400.212500", "194401.217500", "194402.220000", "194403.225000", "194404.227500", "194405.232500", "194406.237500", "194407.240000", "194408.245000", "194409.247500", "194410.252500", "194411.257500", "194412.260000", "194413.265000", "194414.267500", "194415.272500", "194416.277500", "194417.280000", "194418.285000", "194419.290000", "194420.292500", "194421.297500", "194422.300000", "194423.305000", "194424.310000", "194425.312500", "194426.317500", "194427.320000", "194428.325000", "194429.330000", "194430.332500", "194431.337500", "194432.340000", "194433.345000", "194434.350000", "194435.352500", "194436.357500", "194437.360000", "194438.365000", "194439.370000", "194440.372500", "194441.377500", "194442.380000", "194443.385000", "194444.390000", "194445.392500", "194446.397500", "194447.400000", "194448.405000", "194449.410000", "194450.412500", "194451.417500", "194452.422500", "194453.425000", "194454.430000", "194455.432500", "194456.437500", "194457.442500", "194458.445000", "194459.450000", "194500.452500", "194501.457500", "194502.462500", "194503.465000", "194504.470000", "194505.472500", "194506.477500", "194507.482500", "194508.485000", "194509.490000", "194510.492500", "194511.497500", "194512.502500", "194513.505000", "194514.510000", "194515.512500", "194516.517500", "194517.522500", "194518.525000", "194519.530000", "194520.532500", "194521.537500", "194522.542500", "194523.545000", "194524.550000", "194525.555000", "194526.557500", "194527.562500", "194528.565000", "194529.570000", "194530.575000", "194531.577500", "194532.582500", "194533.585000", "194534.590000", "194535.595000", "194536.597500", "194537.602500", "194538.605000", "194539.610000", "194540.615000", "194541.617500", "194542.622500", "194543.625000", "194544.630000", "194545.635000", "194546.637500", "194547.642500", "194548.645000", "194549.650000", "194550.655000", "194551.657500", "194552.662500", "194553.667500", "194554.670000", "194555.675000", "194556.677500", "194557.682500", "194558.687500", "194559.690000", "194600.695000", "194601.697500", "194602.702500", "194603.707500", "194604.710000", "194605.715000", "194606.717500", "194607.722500", "194608.727500", "194609.730000", "194610.735000", "194611.737500", "194612.742500", "194613.747500", "194614.750000", "194615.755000", "194616.757500", "194617.762500", "194618.767500", "194619.770000", "194620.775000", "194621.777500", "194622.782500", "194623.787500", "194624.790000", "194625.795000", "194626.800000", "194627.802500", "194628.807500", "194629.810000", "194630.815000", "194631.820000", "194632.822500", "194633.827500", "194634.830000", "194635.835000", "194636.840000", "194637.842500", "194638.847500", "194639.850000", "194640.855000", "194641.860000", "194642.862500", "194643.867500", "194644.870000", "194645.875000", "194646.880000", "194647.882500", "194648.887500", "194649.890000", "194650.895000", "194651.900000", "194652.902500", "194653.907500", "194654.912500", "194655.915000", "194656.920000", "194657.922500", "194658.927500", "194659.932500", "194700.935000", "194701.940000", "194702.942500", "194703.947500", "194704.952500", "194705.955000", "194706.960000", "194707.962500", "194708.967500", "194709.972500", "194710.975000", "194711.980000", "194712.982500", "194713.987500", "194714.992500", "194715.995000", "194717.000000", "194718.002500", "194719.007500", "194720.012500", "194721.015000", "194722.020000", "194723.022500", "194724.027500", "194725.032500", "194726.035000", "194727.040000", "194728.045000", "194729.047500", "194730.052500", "194731.055000", "194732.060000", "194733.065000", "194734.067500", "194735.072500", "194736.075000", "194737.080000", "194738.085000", "194739.087500", "194740.092500", "194741.095000", "194742.100000", "194743.105000", "194744.107500", "194745.112500", "194746.115000", "194747.120000", "194748.125000", "194749.127500", "194750.132500", "194751.135000", "194752.140000", "194753.145000", "194754.147500", "194755.152500", "194756.155000", "194757.160000", "194758.165000", "194759.167500", "194800.172500", "194801.177500", "194802.180000", "194803.185000", "194804.187500", "194805.192500", "194806.197500", "194807.200000", "194808.205000", "194809.207500", "194810.212500", "194811.217500", "194812.220000", "194813.225000", "194814.227500", "194815.232500", "194816.237500", "194817.240000", "194818.245000", "194819.247500", "194820.252500", "194821.257500", "194822.260000", "194823.265000", "194824.267500", "194825.272500", "194826.277500", "194827.280000", "194828.285000", "194829.290000", "194830.292500", "194831.297500", "194832.300000", "194833.305000", "194834.310000", "194835.312500", "194836.317500", "194837.320000", "194838.325000", "194839.330000", "194840.332500", "194841.337500", "194842.340000", "194843.345000", "194844.350000", "194845.352500", "194846.357500", "194847.360000", "194848.365000", "194849.370000", "194850.372500", "194851.377500", "194852.380000", "194853.385000", "194854.390000", "194855.392500", "194856.397500", "194857.400000", "194858.405000", "194859.410000", "194900.412500", "194901.417500", "194902.422500", "194903.425000", "194904.430000", "194905.432500", "194906.437500", "194907.442500", "194908.445000", "194909.450000", "194910.452500", "194911.457500", "194912.462500", "194913.465000", "194914.470000", "194915.472500", "194916.477500", "194917.482500", "194918.485000", "194919.490000", "194920.492500", "194921.497500", "194922.502500", "194923.505000", "194924.510000", "194925.512500", "194926.517500", "19492