{
  "aor": 0.001274680306905371,
  "aqi": 0.00283075510230179,
  "bids_meta": {
    "AcquisitionMatrixPE": 64,
    "AcquisitionNumber": 1,
    "AcquisitionTime": "19:11:43.170000",
    "BandwidthPerPixelPhaseEncode": 19.531,
    "BaseResolution": 64,
    "CogAtlasID": "TODO",
    "CoilString": "C:HEA;HEP",
    "ConversionSoftware": "dcm2niix",
    "ConversionSoftwareVersion": "v1.0.20190902",
    "DerivedVendorReportedEchoSpacing": 0.00080001,
    "DeviceSerialNumber": "26099",
    "DwellTime": 5.3e-06,
    "EchoTime": 0.0548,
    "EffectiveEchoSpacing": 0.00080001,
    "FlipAngle": 75,
    "ImageComments": "Unaliased_MB4_PE3_LB_SENSE1",
    "ImageOrientationPatientDICOM": [
      1,
      2e-16,
      0,
      -2e-16,
      0.978509,
      -0.206204
    ],
    "ImageType": [
      "ORIGINAL",
      "PRIMARY",
      "M",
      "MB",
      "ND",
      "MOSAIC"
    ],
    "ImagingFrequency": 63.6811,
    "InPlanePhaseEncodingDirectionDICOM": "COL",
    "InstitutionAddress": "Bedford_Way_26_London_London_GB_WC1H_0AP",
    "InstitutionName": "University_College",
    "InstitutionalDepartmentName": "Department",
    "MRAcquisitionType": "2D",
    "MagneticFieldStrength": 1.5,
    "Manufacturer": "Siemens",
    "ManufacturersModelName": "Avanto",
    "Modality": "MR",
    "MultibandAccelerationFactor": 4,
    "PartialFourier": 1,
    "PatientPosition": "HFS",
    "PercentPhaseFOV": 100,
    "PhaseEncodingDirection": "j-",
    "PhaseEncodingSteps": 64,
    "PhaseResolution": 1,
    "PixelBandwidth": 1474,
    "ProcedureStepDescription": "ucl_bbk_Jeremy",
    "ProtocolName": "EcL4-3.2m-40-1474-1s-55e",
    "PulseSequenceDetails": "%CustomerSeq%_cmrr_mbep2d_bold",
    "ReceiveCoilName": "32Ch_Head",
    "ReconMatrixPE": 64,
    "RepetitionTime": 1,
    "SAR": 0.0452191,
    "ScanOptions": "FS",
    "ScanningSequence": "EP",
    "SequenceName": "epfid2d1_64",
    "SequenceVariant": "SK_SS",
    "SeriesDescription": "EcL4-3.2m-40-1474-1s-55e",
    "SeriesNumber": 8,
    "ShimSetting": [
      114,
      8,
      287,
      697,
      -46,
      572,
      -540,
      264
    ],
    "SliceThickness": 3.2,
    "SliceTiming": [
      0,
      0.7025,
      0.4025,
      0.1025,
      0.805,
      0.5025,
      0.2025,
      0.905,
      0.6025,
      0.3025,
      0,
      0.7025,
      0.4025,
      0.1025,
      0.805,
      0.5025,
      0.2025,
      0.905,
      0.6025,
      0.3025,
      0,
      0.7025,
      0.4025,
      0.1025,
      0.805,
      0.5025,
      0.2025,
      0.905,
      0.6025,
      0.3025,
      0,
      0.7025,
      0.4025,
      0.1025,
      0.805,
      0.5025,
      0.2025,
      0.905,
      0.6025,
      0.3025
    ],
    "SoftwareVersions": "syngo_MR_B17",
    "SpacingBetweenSlices": 3.2,
    "StationName": "MRC26099",
    "TaskName": "citizenfour",
    "TotalReadoutTime": 0.0504006,
    "TxRefAmp": 220.89,
    "dataset": "<unset>",
    "dcmmeta_affine": [
      [
        -3.203125,
        -6.40624994052057e-16,
        1.3197068456264558e-16,
        102.5
      ],
      [
        -6.40624994052057e-16,
        3.134286642074585,
        -0.6598533987998962,
        -84.44102478027344
      ],
      [
        0.0,
        0.660497784614563,
        3.1312289237976074,
        -62.50291442871094
      ],
      [
        0.0,
        0.0,
        0.0,
        1.0
      ]
    ],
    "dcmmeta_reorient_transform": [
      [
        0.0,
        -1.0,
        0.0,
        63.0
      ],
      [
        1.0,
        0.0,
        0.0,
        0.0
      ],
      [
        0.0,
        0.0,
        1.0,
        0.0
      ],
      [
        0.0,
        0.0,
        0.0,
        1.0
      ]
    ],
    "dcmmeta_shape": [
      64,
      64,
      40,
      782
    ],
    "dcmmeta_slice_dim": 2,
    "dcmmeta_version": 0.6,
    "global": {
      "const": {
        "AcquisitionMatrix": [
          64,
          0,
          0,
          64
        ],
        "AngioFlag": "N",
        "BitsAllocated": 16,
        "BitsStored": 12,
        "Columns": 448,
        "EchoNumbers": 1,
        "EchoTime": 54.8,
        "EchoTrainLength": 1,
        "FlipAngle": 75.0,
        "HighBit": 11,
        "ImageOrientationPatient": [
          1.0,
          2e-16,
          0.0,
          -2e-16,
          0.97850898540324,
          -0.2062041839661
        ],
        "ImagePositionPatient": [
          -717.5,
          -714.80205981979,
          105.92401710186
        ],
        "ImageType": [
          "ORIGINAL",
          "PRIMARY",
          "M",
          "MB",
          "ND",
          "MOSAIC"
        ],
        "ImagedNucleus": "1H",
        "ImagingFrequency": 63.681063,
        "InPlanePhaseEncodingDirection": "COL",
        "MRAcquisitionType": "2D",
        "MagneticFieldStrength": 1.5,
        "Manufacturer": "SIEMENS",
        "ManufacturerModelName": "Avanto",
        "Modality": "MR",
        "NumberOfAverages": 1.0,
        "NumberOfPhaseEncodingSteps": 64,
        "PercentPhaseFieldOfView": 100.0,
        "PercentSampling": 100.0,
        "PerformedProcedureStepStartTime": "180147.078000",
        "PhotometricInterpretation": "MONOCHROME2",
        "PixelBandwidth": 1474.0,
        "PixelRepresentation": 0,
        "PixelSpacing": [
          3.203125,
          3.203125
        ],
        "ProtocolName": "EcL4-3.2m-40-1474-1s-55e",
        "RepetitionTime": 1000.0,
        "Rows": 448,
        "SAR": 0.04521912239996,
        "SamplesPerPixel": 1,
        "ScanOptions": "FS",
        "ScanningSequence": "EP",
        "SequenceName": "epfid2d1_64",
        "SequenceVariant": [
          "SK",
          "SS"
        ],
        "SeriesDescription": "EcL4-3.2m-40-1474-1s-55e",
        "SeriesNumber": 8,
        "SeriesTime": "191222.734000",
        "SliceLocation": -43.747572938234,
        "SliceThickness": 3.2000000476837,
        "SmallestImagePixelValue": 0,
        "SoftwareVersions": "syngo MR B17",
        "SpacingBetweenSlices": 3.2000000609376,
        "SpecificCharacterSet": "ISO_IR 100",
        "StudyID": "1",
        "StudyTime": "180147.015000",
        "TransmitCoilName": "Body",
        "VariableFlipAngleFlag": "N",
        "WindowCenterWidthExplanation": "Algo1",
        "dBdt": 0.0
      },
      "slices": {}
    },
    "modality": "bold",
    "run_id": 3,
    "subject_id": "21",
    "task_id": "citizenfour",
    "time": {
      "samples": {
        "AcquisitionNumber": [
          1,
          2,
          3,
          4,
          5,
          6,
          7,
          8,
          9,
          10,
          11,
          12,
          13,
          14,
          15,
          16,
          17,
          18,
          19,
          20,
          21,
          22,
          23,
          24,
          25,
          26,
          27,
          28,
          29,
          30,
          31,
          32,
          33,
          34,
          35,
          36,
          37,
          38,
          39,
          40,
          41,
          42,
          43,
          44,
          45,
          46,
          47,
          48,
          49,
          50,
          51,
          52,
          53,
          54,
          55,
          56,
          57,
          58,
          59,
          60,
          61,
          62,
          63,
          64,
          65,
          66,
          67,
          68,
          69,
          70,
          71,
          72,
          73,
          74,
          75,
          76,
          77,
          78,
          79,
          80,
          81,
          82,
          83,
          84,
          85,
          86,
          87,
          88,
          89,
          90,
          91,
          92,
          93,
          94,
          95,
          96,
          97,
          98,
          99,
          100,
          101,
          102,
          103,
          104,
          105,
          106,
          107,
          108,
          109,
          110,
          111,
          112,
          113,
          114,
          115,
          116,
          117,
          118,
          119,
          120,
          121,
          122,
          123,
          124,
          125,
          126,
          127,
          128,
          129,
          130,
          131,
          132,
          133,
          134,
          135,
          136,
          137,
          138,
          139,
          140,
          141,
          142,
          143,
          144,
          145,
          146,
          147,
          148,
          149,
          150,
          151,
          152,
          153,
          154,
          155,
          156,
          157,
          158,
          159,
          160,
          161,
          162,
          163,
          164,
          165,
          166,
          167,
          168,
          169,
          170,
          171,
          172,
          173,
          174,
          175,
          176,
          177,
          178,
          179,
          180,
          181,
          182,
          183,
          184,
          185,
          186,
          187,
          188,
          189,
          190,
          191,
          192,
          193,
          194,
          195,
          196,
          197,
          198,
          199,
          200,
          201,
          202,
          203,
          204,
          205,
          206,
          207,
          208,
          209,
          210,
          211,
          212,
          213,
          214,
          215,
          216,
          217,
          218,
          219,
          220,
          221,
          222,
          223,
          224,
          225,
          226,
          227,
          228,
          229,
          230,
          231,
          232,
          233,
          234,
          235,
          236,
          237,
          238,
          239,
          240,
          241,
          242,
          243,
          244,
          245,
          246,
          247,
          248,
          249,
          250,
          251,
          252,
          253,
          254,
          255,
          256,
          257,
          258,
          259,
          260,
          261,
          262,
          263,
          264,
          265,
          266,
          267,
          268,
          269,
          270,
          271,
          272,
          273,
          274,
          275,
          276,
          277,
          278,
          279,
          280,
          281,
          282,
          283,
          284,
          285,
          286,
          287,
          288,
          289,
          290,
          291,
          292,
          293,
          294,
          295,
          296,
          297,
          298,
          299,
          300,
          301,
          302,
          303,
          304,
          305,
          306,
          307,
          308,
          309,
          310,
          311,
          312,
          313,
          314,
          315,
          316,
          317,
          318,
          319,
          320,
          321,
          322,
          323,
          324,
          325,
          326,
          327,
          328,
          329,
          330,
          331,
          332,
          333,
          334,
          335,
          336,
          337,
          338,
          339,
          340,
          341,
          342,
          343,
          344,
          345,
          346,
          347,
          348,
          349,
          350,
          351,
          352,
          353,
          354,
          355,
          356,
          357,
          358,
          359,
          360,
          361,
          362,
          363,
          364,
          365,
          366,
          367,
          368,
          369,
          370,
          371,
          372,
          373,
          374,
          375,
          376,
          377,
          378,
          379,
          380,
          381,
          382,
          383,
          384,
          385,
          386,
          387,
          388,
          389,
          390,
          391,
          392,
          393,
          394,
          395,
          396,
          397,
          398,
          399,
          400,
          401,
          402,
          403,
          404,
          405,
          406,
          407,
          408,
          409,
          410,
          411,
          412,
          413,
          414,
          415,
          416,
          417,
          418,
          419,
          420,
          421,
          422,
          423,
          424,
          425,
          426,
          427,
          428,
          429,
          430,
          431,
          432,
          433,
          434,
          435,
          436,
          437,
          438,
          439,
          440,
          441,
          442,
          443,
          444,
          445,
          446,
          447,
          448,
          449,
          450,
          451,
          452,
          453,
          454,
          455,
          456,
          457,
          458,
          459,
          460,
          461,
          462,
          463,
          464,
          465,
          466,
          467,
          468,
          469,
          470,
          471,
          472,
          473,
          474,
          475,
          476,
          477,
          478,
          479,
          480,
          481,
          482,
          483,
          484,
          485,
          486,
          487,
          488,
          489,
          490,
          491,
          492,
          493,
          494,
          495,
          496,
          497,
          498,
          499,
          500,
          501,
          502,
          503,
          504,
          505,
          506,
          507,
          508,
          509,
          510,
          511,
          512,
          513,
          514,
          515,
          516,
          517,
          518,
          519,
          520,
          521,
          522,
          523,
          524,
          525,
          526,
          527,
          528,
          529,
          530,
          531,
          532,
          533,
          534,
          535,
          536,
          537,
          538,
          539,
          540,
          541,
          542,
          543,
          544,
          545,
          546,
          547,
          548,
          549,
          550,
          551,
          552,
          553,
          554,
          555,
          556,
          557,
          558,
          559,
          560,
          561,
          562,
          563,
          564,
          565,
          566,
          567,
          568,
          569,
          570,
          571,
          572,
          573,
          574,
          575,
          576,
          577,
          578,
          579,
          580,
          581,
          582,
          583,
          584,
          585,
          586,
          587,
          588,
          589,
          590,
          591,
          592,
          593,
          594,
          595,
          596,
          597,
          598,
          599,
          600,
          601,
          602,
          603,
          604,
          605,
          606,
          607,
          608,
          609,
          610,
          611,
          612,
          613,
          614,
          615,
          616,
          617,
          618,
          619,
          620,
          621,
          622,
          623,
          624,
          625,
          626,
          627,
          628,
          629,
          630,
          631,
          632,
          633,
          634,
          635,
          636,
          637,
          638,
          639,
          640,
          641,
          642,
          643,
          644,
          645,
          646,
          647,
          648,
          649,
          650,
          651,
          652,
          653,
          654,
          655,
          656,
          657,
          658,
          659,
          660,
          661,
          662,
          663,
          664,
          665,
          666,
          667,
          668,
          669,
          670,
          671,
          672,
          673,
          674,
          675,
          676,
          677,
          678,
          679,
          680,
          681,
          682,
          683,
          684,
          685,
          686,
          687,
          688,
          689,
          690,
          691,
          692,
          693,
          694,
          695,
          696,
          697,
          698,
          699,
          700,
          701,
          702,
          703,
          704,
          705,
          706,
          707,
          708,
          709,
          710,
          711,
          712,
          713,
          714,
          715,
          716,
          717,
          718,
          719,
          720,
          721,
          722,
          723,
          724,
          725,
          726,
          727,
          728,
          729,
          730,
          731,
          732,
          733,
          734,
          735,
          736,
          737,
          738,
          739,
          740,
          741,
          742,
          743,
          744,
          745,
          746,
          747,
          748,
          749,
          750,
          751,
          752,
          753,
          754,
          755,
          756,
          757,
          758,
          759,
          760,
          761,
          762,
          763,
          764,
          765,
          766,
          767,
          768,
          769,
          770,
          771,
          772,
          773,
          774,
          775,
          776,
          777,
          778,
          779,
          780,
          781,
          782
        ],
        "AcquisitionTime": [
          "191143.170000",
          "191144.175000",
          "191145.180000",
          "191146.182500",
          "191147.187500",
          "191148.190000",
          "191149.195000",
          "191150.200000",
          "191151.202500",
          "191152.207500",
          "191153.210000",
          "191154.215000",
          "191155.220000",
          "191156.222500",
          "191157.227500",
          "191158.230000",
          "191159.235000",
          "191200.240000",
          "191201.242500",
          "191202.247500",
          "191203.250000",
          "191204.255000",
          "191205.260000",
          "191206.262500",
          "191207.267500",
          "191208.272500",
          "191209.275000",
          "191210.280000",
          "191211.282500",
          "191212.287500",
          "191213.292500",
          "191214.295000",
          "191215.300000",
          "191216.302500",
          "191217.307500",
          "191218.312500",
          "191219.315000",
          "191220.320000",
          "191221.322500",
          "191222.327500",
          "191223.332500",
          "191224.335000",
          "191225.340000",
          "191226.342500",
          "191227.347500",
          "191228.352500",
          "191229.355000",
          "191230.360000",
          "191231.362500",
          "191232.367500",
          "191233.372500",
          "191234.375000",
          "191235.380000",
          "191236.385000",
          "191237.387500",
          "191238.392500",
          "191239.395000",
          "191240.400000",
          "191241.405000",
          "191242.407500",
          "191243.412500",
          "191244.415000",
          "191245.420000",
          "191246.425000",
          "191247.427500",
          "191248.432500",
          "191249.435000",
          "191250.440000",
          "191251.445000",
          "191252.447500",
          "191253.452500",
          "191254.455000",
          "191255.460000",
          "191256.465000",
          "191257.467500",
          "191258.472500",
          "191259.475000",
          "191300.480000",
          "191301.485000",
          "191302.487500",
          "191303.492500",
          "191304.495000",
          "191305.500000",
          "191306.505000",
          "191307.507500",
          "191308.512500",
          "191309.517500",
          "191310.520000",
          "191311.525000",
          "191312.527500",
          "191313.532500",
          "191314.537500",
          "191315.540000",
          "191316.545000",
          "191317.547500",
          "191318.552500",
          "191319.557500",
          "191320.560000",
          "191321.565000",
          "191322.567500",
          "191323.572500",
          "191324.577500",
          "191325.580000",
          "191326.585000",
          "191327.587500",
          "191328.592500",
          "191329.597500",
          "191330.600000",
          "191331.605000",
          "191332.607500",
          "191333.612500",
          "191334.617500",
          "191335.620000",
          "191336.625000",
          "191337.627500",
          "191338.632500",
          "191339.637500",
          "191340.640000",
          "191341.645000",
          "191342.650000",
          "191343.652500",
          "191344.657500",
          "191345.660000",
          "191346.665000",
          "191347.670000",
          "191348.672500",
          "191349.677500",
          "191350.680000",
          "191351.685000",
          "191352.690000",
          "191353.692500",
          "191354.697500",
          "191355.700000",
          "191356.705000",
          "191357.710000",
          "191358.712500",
          "191359.717500",
          "191400.720000",
          "191401.725000",
          "191402.730000",
          "191403.732500",
          "191404.737500",
          "191405.740000",
          "191406.745000",
          "191407.750000",
          "191408.752500",
          "191409.757500",
          "191410.762500",
          "191411.765000",
          "191412.770000",
          "191413.772500",
          "191414.777500",
          "191415.782500",
          "191416.785000",
          "191417.790000",
          "191418.792500",
          "191419.797500",
          "191420.802500",
          "191421.805000",
          "191422.810000",
          "191423.812500",
          "191424.817500",
          "191425.822500",
          "191426.825000",
          "191427.830000",
          "191428.832500",
          "191429.837500",
          "191430.842500",
          "191431.845000",
          "191432.850000",
          "191433.852500",
          "191434.857500",
          "191435.862500",
          "191436.865000",
          "191437.870000",
          "191438.872500",
          "191439.877500",
          "191440.882500",
          "191441.885000",
          "191442.890000",
          "191443.895000",
          "191444.897500",
          "191445.902500",
          "191446.905000",
          "191447.910000",
          "191448.915000",
          "191449.917500",
          "191450.922500",
          "191451.925000",
          "191452.930000",
          "191453.935000",
          "191454.937500",
          "191455.942500",
          "191456.945000",
          "191457.950000",
          "191458.955000",
          "191459.957500",
          "191500.962500",
          "191501.965000",
          "191502.970000",
          "191503.975000",
          "191504.977500",
          "191505.982500",
          "191506.985000",
          "191507.990000",
          "191508.995000",
          "191509.997500",
          "191511.002500",
          "191512.005000",
          "191513.010000",
          "191514.015000",
          "191515.017500",
          "191516.022500",
          "191517.027500",
          "191518.030000",
          "191519.035000",
          "191520.037500",
          "191521.042500",
          "191522.047500",
          "191523.050000",
          "191524.055000",
          "191525.057500",
          "191526.062500",
          "191527.067500",
          "191528.070000",
          "191529.075000",
          "191530.077500",
          "191531.082500",
          "191532.087500",
          "191533.090000",
          "191534.095000",
          "191535.097500",
          "191536.102500",
          "191537.107500",
          "191538.110000",
          "191539.115000",
          "191540.117500",
          "191541.122500",
          "191542.127500",
          "191543.130000",
          "191544.135000",
          "191545.140000",
          "191546.142500",
          "191547.147500",
          "191548.150000",
          "191549.155000",
          "191550.160000",
          "191551.162500",
          "191552.167500",
          "191553.170000",
          "191554.175000",
          "191555.180000",
          "191556.182500",
          "191557.187500",
          "191558.190000",
          "191559.195000",
          "191600.200000",
          "191601.202500",
          "191602.207500",
          "191603.210000",
          "191604.215000",
          "191605.220000",
          "191606.222500",
          "191607.227500",
          "191608.230000",
          "191609.235000",
          "191610.240000",
          "191611.242500",
          "191612.247500",
          "191613.250000",
          "191614.255000",
          "191615.260000",
          "191616.262500",
          "191617.267500",
          "191618.272500",
          "191619.275000",
          "191620.280000",
          "191621.282500",
          "191622.287500",
          "191623.292500",
          "191624.295000",
          "191625.300000",
          "191626.302500",
          "191627.307500",
          "191628.312500",
          "191629.315000",
          "191630.320000",
          "191631.322500",
          "191632.327500",
          "191633.332500",
          "191634.335000",
          "191635.340000",
          "191636.342500",
          "191637.347500",
          "191638.352500",
          "191639.355000",
          "191640.360000",
          "191641.362500",
          "191642.367500",
          "191643.372500",
          "191644.375000",
          "191645.380000",
          "191646.385000",
          "191647.387500",
          "191648.392500",
          "191649.395000",
          "191650.400000",
          "191651.405000",
          "191652.407500",
          "191653.412500",
          "191654.415000",
          "191655.420000",
          "191656.425000",
          "191657.427500",
          "191658.432500",
          "191659.435000",
          "191700.440000",
          "191701.445000",
          "191702.447500",
          "191703.452500",
          "191704.455000",
          "191705.460000",
          "191706.465000",
          "191707.467500",
          "191708.472500",
          "191709.475000",
          "191710.480000",
          "191711.485000",
          "191712.487500",
          "191713.492500",
          "191714.495000",
          "191715.500000",
          "191716.505000",
          "191717.507500",
          "191718.512500",
          "191719.517500",
          "191720.520000",
          "191721.525000",
          "191722.527500",
          "191723.532500",
          "191724.537500",
          "191725.540000",
          "191726.545000",
          "191727.547500",
          "191728.552500",
          "191729.557500",
          "191730.560000",
          "191731.565000",
          "191732.567500",
          "191733.572500",
          "191734.577500",
          "191735.580000",
          "191736.585000",
          "191737.587500",
          "191738.592500",
          "191739.597500",
          "191740.600000",
          "191741.605000",
          "191742.607500",
          "191743.612500",
          "191744.617500",
          "191745.620000",
          "191746.625000",
          "191747.627500",
          "191748.632500",
          "191749.637500",
          "191750.640000",
          "191751.645000",
          "191752.650000",
          "191753.652500",
          "191754.657500",
          "191755.660000",
          "191756.665000",
          "191757.670000",
          "191758.672500",
          "191759.677500",
          "191800.680000",
          "191801.685000",
          "191802.690000",
          "191803.692500",
          "191804.697500",
          "191805.700000",
          "191806.705000",
          "191807.710000",
          "191808.712500",
          "191809.717500",
          "191810.720000",
          "191811.725000",
          "191812.730000",
          "191813.732500",
          "191814.737500",
          "191815.740000",
          "191816.745000",
          "191817.750000",
          "191818.752500",
          "191819.757500",
          "191820.762500",
          "191821.765000",
          "191822.770000",
          "191823.772500",
          "191824.777500",
          "191825.782500",
          "191826.785000",
          "191827.790000",
          "191828.792500",
          "191829.797500",
          "191830.802500",
          "191831.805000",
          "191832.810000",
          "191833.812500",
          "191834.817500",
          "191835.822500",
          "191836.825000",
          "191837.830000",
          "191838.832500",
          "191839.837500",
          "191840.842500",
          "191841.845000",
          "191842.850000",
          "191843.852500",
          "191844.857500",
          "191845.862500",
          "191846.865000",
          "191847.870000",
          "191848.872500",
          "191849.877500",
          "191850.882500",
          "191851.885000",
          "191852.890000",
          "191853.895000",
          "191854.897500",
          "191855.902500",
          "191856.905000",
          "191857.910000",
          "191858.915000",
          "191859.917500",
          "191900.922500",
          "191901.925000",
          "191902.930000",
          "191903.935000",
          "191904.937500",
