{
  "AcquisitionMatrixPE": 64,
  "AcquisitionNumber": 1,
  "AcquisitionTime": "19:12:57.275000",
  "BandwidthPerPixelPhaseEncode": 19.531,
  "BaseResolution": 64,
  "CoilString": "C:HEA;HEP",
  "ConversionSoftware": "dcm2niix",
  "ConversionSoftwareVersion": "v1.0.20190902",
  "DerivedVendorReportedEchoSpacing": 0.00080001,
  "DeviceSerialNumber": "26099",
  "DwellTime": 5.3e-06,
  "EchoTime": 0.0548,
  "EffectiveEchoSpacing": 0.00080001,
  "FlipAngle": 75,
  "ImageComments": "Unaliased_MB4_PE3_LB_SENSE1",
  "ImageOrientationPatientDICOM": [1, -1e-16, 0, 1e-16, 0.977783, -0.209619],
  "ImageType": [
    "ORIGINAL",
    "PRIMARY",
    "M",
    "MB",
    "ND",
    "MOSAIC"
],
  "ImagingFrequency": 63.6394,
  "InPlanePhaseEncodingDirectionDICOM": "COL",
  "InstitutionAddress": "Bedford_Way_26_London_London_GB_WC1H_0AP",
  "InstitutionName": "University_College",
  "InstitutionalDepartmentName": "Department",
  "MRAcquisitionType": "2D",
  "MagneticFieldStrength": 1.5,
  "Manufacturer": "Siemens",
  "ManufacturersModelName": "Avanto",
  "Modality": "MR",
  "MultibandAccelerationFactor": 4,
  "PartialFourier": 1,
  "PatientPosition": "HFS",
  "PercentPhaseFOV": 100,
  "PhaseEncodingDirection": "j-",
  "PhaseEncodingSteps": 64,
  "PhaseResolution": 1,
  "PixelBandwidth": 1474,
  "ProcedureStepDescription": "ucl_bbk_Jeremy",
  "ProtocolName": "EcL4-3.2m-40-1474-1s-55e",
  "PulseSequenceDetails": "%CustomerSeq%_cmrr_mbep2d_bold",
  "ReceiveCoilName": "32Ch_Head",
  "ReconMatrixPE": 64,
  "RepetitionTime": 1,
  "SAR": 0.0473439,
  "ScanOptions": "FS",
  "ScanningSequence": "EP",
  "SequenceName": "epfid2d1_64",
  "SequenceVariant": "SK_SS",
  "SeriesDescription": "EcL4-3.2m-40-1474-1s-55e",
  "SeriesNumber": 7,
  "ShimSetting": [194, -8, 386, 1146, 43, 734, -477, 100],
  "SliceThickness": 3.2,
  "SliceTiming": [0, 0.7025, 0.4, 0.1, 0.8025, 0.5, 0.2, 0.9025, 0.6025, 0.3, 0, 0.7025, 0.4, 0.1, 0.8025, 0.5, 0.2, 0.9025, 0.6025, 0.3, 0, 0.7025, 0.4, 0.1, 0.8025, 0.5, 0.2, 0.9025, 0.6025, 0.3, 0, 0.7025, 0.4, 0.1, 0.8025, 0.5, 0.2, 0.9025, 0.6025, 0.3],
  "SoftwareVersions": "syngo_MR_B17",
  "SpacingBetweenSlices": 3.2,
  "StationName": "MRC26099",
  "TaskName": "citizenfour",
  "TotalReadoutTime": 0.0504006,
  "TxRefAmp": 215.485,
  "dcmmeta_affine": [
    [-3.203125, 3.203124970260285e-16, -6.707794199138693e-17, 102.5],
    [3.203124970260285e-16, 3.1319618225097656, -0.6707794070243835, -79.7491226196289],
    [0.0, 0.6714344620704651, 3.12890625, -60.278507232666016],
    [0.0, 0.0, 0.0, 1.0]
],
  "dcmmeta_reorient_transform": [
    [0.0, -1.0, 0.0, 63.0],
    [1.0, 0.0, 0.0, 0.0],
    [0.0, 0.0, 1.0, 0.0],
    [0.0, 0.0, 0.0, 1.0]
],
  "dcmmeta_shape": [64, 64, 40, 1125],
  "dcmmeta_slice_dim": 2,
  "dcmmeta_version": 0.6,
  "global": {
    "const": {
      "AcquisitionMatrix": [64, 0, 0, 64],
      "AngioFlag": "N",
      "BitsAllocated": 16,
      "BitsStored": 12,
      "Columns": 448,
      "EchoNumbers": 1,
      "EchoTime": 54.8,
      "EchoTrainLength": 1,
      "FlipAngle": 75.0,
      "HighBit": 11,
      "ImageOrientationPatient": [1.0, -1e-16, 0.0, 1e-16, 0.9777832355831, -0.2096185683871],
      "ImagePositionPatient": [-717.5, -718.90117113109, 110.93728396883],
      "ImageType": [
        "ORIGINAL",
        "PRIMARY",
        "M",
        "MB",
        "ND",
        "MOSAIC"
],
      "ImagedNucleus": "1H",
      "ImagingFrequency": 63.639397,
      "InPlanePhaseEncodingDirection": "COL",
      "MRAcquisitionType": "2D",
      "MagneticFieldStrength": 1.5,
      "Manufacturer": "SIEMENS",
      "ManufacturerModelName": "Avanto",
      "Modality": "MR",
      "NumberOfAverages": 1.0,
      "NumberOfPhaseEncodingSteps": 64,
      "PercentPhaseFieldOfView": 100.0,
      "PercentSampling": 100.0,
      "PerformedProcedureStepStartTime": "173156.406000",
      "PhotometricInterpretation": "MONOCHROME2",
      "PixelBandwidth": 1474.0,
      "PixelRepresentation": 0,
      "PixelSpacing": [3.203125, 3.203125],
      "ProtocolName": "EcL4-3.2m-40-1474-1s-55e",
      "RepetitionTime": 1000.0,
      "Rows": 448,
      "SAR": 0.04734388568706,
      "SamplesPerPixel": 1,
      "ScanOptions": "FS",
      "ScanningSequence": "EP",
      "SequenceName": "epfid2d1_64",
      "SequenceVariant": [
        "SK",
        "SS"
],
      "SeriesDescription": "EcL4-3.2m-40-1474-1s-55e",
      "SeriesNumber": 7,
      "SeriesTime": "191350.281000",
      "SliceLocation": -42.222417838429,
      "SliceThickness": 3.2000000476837,
      "SmallestImagePixelValue": 0,
      "SoftwareVersions": "syngo MR B17",
      "SpacingBetweenSlices": 3.199999990003,
      "SpecificCharacterSet": "ISO_IR 100",
      "StudyID": "1",
      "StudyTime": "173156.343000",
      "TransmitCoilName": "Body",
      "VariableFlipAngleFlag": "N",
      "WindowCenterWidthExplanation": "Algo1",
      "dBdt": 0.0},
    "slices": {}
  },
  "time": {
    "samples": {
      "AcquisitionNumber": [1, 2, 3, 4, 5, 6, 7, 8, 9, 10, 11, 12, 13, 14, 15, 16, 17, 18, 19, 20, 21, 22, 23, 24, 25, 26, 27, 28, 29, 30, 31, 32, 33, 34, 35, 36, 37, 38, 39, 40, 41, 42, 43, 44, 45, 46, 47, 48, 49, 50, 51, 52, 53, 54, 55, 56, 57, 58, 59, 60, 61, 62, 63, 64, 65, 66, 67, 68, 69, 70, 71, 72, 73, 74, 75, 76, 77, 78, 79, 80, 81, 82, 83, 84, 85, 86, 87, 88, 89, 90, 91, 92, 93, 94, 95, 96, 97, 98, 99, 100, 101, 102, 103, 104, 105, 106, 107, 108, 109, 110, 111, 112, 113, 114, 115, 116, 117, 118, 119, 120, 121, 122, 123, 124, 125, 126, 127, 128, 129, 130, 131, 132, 133, 134, 135, 136, 137, 138, 139, 140, 141, 142, 143, 144, 145, 146, 147, 148, 149, 150, 151, 152, 153, 154, 155, 156, 157, 158, 159, 160, 161, 162, 163, 164, 165, 166, 167, 168, 169, 170, 171, 172, 173, 174, 175, 176, 177, 178, 179, 180, 181, 182, 183, 184, 185, 186, 187, 188, 189, 190, 191, 192, 193, 194, 195, 196, 197, 198, 199, 200, 201, 202, 203, 204, 205, 206, 207, 208, 209, 210, 211, 212, 213, 214, 215, 216, 217, 218, 219, 220, 221, 222, 223, 224, 225, 226, 227, 228, 229, 230, 231, 232, 233, 234, 235, 236, 237, 238, 239, 240, 241, 242, 243, 244, 245, 246, 247, 248, 249, 250, 251, 252, 253, 254, 255, 256, 257, 258, 259, 260, 261, 262, 263, 264, 265, 266, 267, 268, 269, 270, 271, 272, 273, 274, 275, 276, 277, 278, 279, 280, 281, 282, 283, 284, 285, 286, 287, 288, 289, 290, 291, 292, 293, 294, 295, 296, 297, 298, 299, 300, 301, 302, 303, 304, 305, 306, 307, 308, 309, 310, 311, 312, 313, 314, 315, 316, 317, 318, 319, 320, 321, 322, 323, 324, 325, 326, 327, 328, 329, 330, 331, 332, 333, 334, 335, 336, 337, 338, 339, 340, 341, 342, 343, 344, 345, 346, 347, 348, 349, 350, 351, 352, 353, 354, 355, 356, 357, 358, 359, 360, 361, 362, 363, 364, 365, 366, 367, 368, 369, 370, 371, 372, 373, 374, 375, 376, 377, 378, 379, 380, 381, 382, 383, 384, 385, 386, 387, 388, 389, 390, 391, 392, 393, 394, 395, 396, 397, 398, 399, 400, 401, 402, 403, 404, 405, 406, 407, 408, 409, 410, 411, 412, 413, 414, 415, 416, 417, 418, 419, 420, 421, 422, 423, 424, 425, 426, 427, 428, 429, 430, 431, 432, 433, 434, 435, 436, 437, 438, 439, 440, 441, 442, 443, 444, 445, 446, 447, 448, 449, 450, 451, 452, 453, 454, 455, 456, 457, 458, 459, 460, 461, 462, 463, 464, 465, 466, 467, 468, 469, 470, 471, 472, 473, 474, 475, 476, 477, 478, 479, 480, 481, 482, 483, 484, 485, 486, 487, 488, 489, 490, 491, 492, 493, 494, 495, 496, 497, 498, 499, 500, 501, 502, 503, 504, 505, 506, 507, 508, 509, 510, 511, 512, 513, 514, 515, 516, 517, 518, 519, 520, 521, 522, 523, 524, 525, 526, 527, 528, 529, 530, 531, 532, 533, 534, 535, 536, 537, 538, 539, 540, 541, 542, 543, 544, 545, 546, 547, 548, 549, 550, 551, 552, 553, 554, 555, 556, 557, 558, 559, 560, 561, 562, 563, 564, 565, 566, 567, 568, 569, 570, 571, 572, 573, 574, 575, 576, 577, 578, 579, 580, 581, 582, 583, 584, 585, 586, 587, 588, 589, 590, 591, 592, 593, 594, 595, 596, 597, 598, 599, 600, 601, 602, 603, 604, 605, 606, 607, 608, 609, 610, 611, 612, 613, 614, 615, 616, 617, 618, 619, 620, 621, 622, 623, 624, 625, 626, 627, 628, 629, 630, 631, 632, 633, 634, 635, 636, 637, 638, 639, 640, 641, 642, 643, 644, 645, 646, 647, 648, 649, 650, 651, 652, 653, 654, 655, 656, 657, 658, 659, 660, 661, 662, 663, 664, 665, 666, 667, 668, 669, 670, 671, 672, 673, 674, 675, 676, 677, 678, 679, 680, 681, 682, 683, 684, 685, 686, 687, 688, 689, 690, 691, 692, 693, 694, 695, 696, 697, 698, 699, 700, 701, 702, 703, 704, 705, 706, 707, 708, 709, 710, 711, 712, 713, 714, 715, 716, 717, 718, 719, 720, 721, 722, 723, 724, 725, 726, 727, 728, 729, 730, 731, 732, 733, 734, 735, 736, 737, 738, 739, 740, 741, 742, 743, 744, 745, 746, 747, 748, 749, 750, 751, 752, 753, 754, 755, 756, 757, 758, 759, 760, 761, 762, 763, 764, 765, 766, 767, 768, 769, 770, 771, 772, 773, 774, 775, 776, 777, 778, 779, 780, 781, 782, 783, 784, 785, 786, 787, 788, 789, 790, 791, 792, 793, 794, 795, 796, 797, 798, 799, 800, 801, 802, 803, 804, 805, 806, 807, 808, 809, 810, 811, 812, 813, 814, 815, 816, 817, 818, 819, 820, 821, 822, 823, 824, 825, 826, 827, 828, 829, 830, 831, 832, 833, 834, 835, 836, 837, 838, 839, 840, 841, 842, 843, 844, 845, 846, 847, 848, 849, 850, 851, 852, 853, 854, 855, 856, 857, 858, 859, 860, 861, 862, 863, 864, 865, 866, 867, 868, 869, 870, 871, 872, 873, 874, 875, 876, 877, 878, 879, 880, 881, 882, 883, 884, 885, 886, 887, 888, 889, 890, 891, 892, 893, 894, 895, 896, 897, 898, 899, 900, 901, 902, 903, 904, 905, 906, 907, 908, 909, 910, 911, 912, 913, 914, 915, 916, 917, 918, 919, 920, 921, 922, 923, 924, 925, 926, 927, 928, 929, 930, 931, 932, 933, 934, 935, 936, 937, 938, 939, 940, 941, 942, 943, 944, 945, 946, 947, 948, 949, 950, 951, 952, 953, 954, 955, 956, 957, 958, 959, 960, 961, 962, 963, 964, 965, 966, 967, 968, 969, 970, 971, 972, 973, 974, 975, 976, 977, 978, 979, 980, 981, 982, 983, 984, 985, 986, 987, 988, 989, 990, 991, 992, 993, 994, 995, 996, 997, 998, 999, 1000, 1001, 1002, 1003, 1004, 1005, 1006, 1007, 1008, 1009, 1010, 1011, 1012, 1013, 1014, 1015, 1016, 1017, 1018, 1019, 1020, 1021, 1022, 1023, 1024, 1025, 1026, 1027, 1028, 1029, 1030, 1031, 1032, 1033, 1034, 1035, 1036, 1037, 1038, 1039, 1040, 1041, 1042, 1043, 1044, 1045, 1046, 1047, 1048, 1049, 1050, 1051, 1052, 1053, 1054, 1055, 1056, 1057, 1058, 1059, 1060, 1061, 1062, 1063, 1064, 1065, 1066, 1067, 1068, 1069, 1070, 1071, 1072, 1073, 1074, 1075, 1076, 1077, 1078, 1079, 1080, 1081, 1082, 1083, 1084, 1085, 1086, 1087, 1088, 1089, 1090, 1091, 1092, 1093, 1094, 1095, 1096, 1097, 1098, 1099, 1100, 1101, 1102, 1103, 1104, 1105, 1106, 1107, 1108, 1109, 1110, 1111, 1112, 1113, 1114, 1115, 1116, 1117, 1118, 1119, 1120, 1121, 1122, 1123, 1124, 1125],
      "AcquisitionTime": ["191257.275000", "191258.277500", "191259.282500", "191300.285000", "191301.290000", "191302.295000", "191303.297500", "191304.302500", "191305.307500", "191306.310000", "191307.315000", "191308.317500", "191309.322500", "191310.327500", "191311.330000", "191312.335000", "191313.337500", "191314.342500", "191315.347500", "191316.350000", "191317.355000", "191318.357500", "191319.362500", "191320.367500", "191321.370000", "191322.375000", "191323.377500", "191324.382500", "191325.387500", "191326.390000", "191327.395000", "191328.397500", "191329.402500", "191330.407500", "191331.410000", "191332.415000", "191333.417500", "191334.422500", "191335.427500", "191336.430000", "191337.435000", "191338.440000", "191339.442500", "191340.447500", "191341.450000", "191342.455000", "191343.460000", "191344.462500", "191345.467500", "191346.470000", "191347.475000", "191348.480000", "191349.482500", "191350.487500", "191351.490000", "191352.495000", "191353.500000", "191354.502500", "191355.507500", "191356.510000", "191357.515000", "191358.520000", "191359.522500", "191400.527500", "191401.530000", "191402.535000", "191403.540000", "191404.542500", "191405.547500", "191406.552500", "191407.555000", "191408.560000", "191409.562500", "191410.567500", "191411.572500", "191412.575000", "191413.580000", "191414.582500", "191415.587500", "191416.592500", "191417.595000", "191418.600000", "191419.602500", "191420.607500", "191421.612500", "191422.615000", "191423.620000", "191424.622500", "191425.627500", "191426.632500", "191427.635000", "191428.640000", "191429.642500", "191430.647500", "191431.652500", "191432.655000", "191433.660000", "191434.662500", "191435.667500", "191436.672500", "191437.675000", "191438.680000", "191439.685000", "191440.687500", "191441.692500", "191442.695000", "191443.700000", "191444.705000", "191445.707500", "191446.712500", "191447.715000", "191448.720000", "191449.725000", "191450.727500", "191451.732500", "191452.735000", "191453.740000", "191454.745000", "191455.747500", "191456.752500", "191457.755000", "191458.760000", "191459.765000", "191500.767500", "191501.772500", "191502.775000", "191503.780000", "191504.785000", "191505.787500", "191506.792500", "191507.795000", "191508.800000", "191509.805000", "191510.807500", "191511.812500", "191512.817500", "191513.820000", "191514.825000", "191515.827500", "191516.832500", "191517.837500", "191518.840000", "191519.845000", "191520.847500", "191521.852500", "191522.857500", "191523.860000", "191524.865000", "191525.867500", "191526.872500", "191527.877500", "191528.880000", "191529.885000", "191530.887500", "191531.892500", "191532.897500", "191533.900000", "191534.905000", "191535.907500", "191536.912500", "191537.917500", "191538.920000", "191539.925000", "191540.930000", "191541.932500", "191542.937500", "191543.940000", "191544.945000", "191545.950000", "191546.952500", "191547.957500", "191548.960000", "191549.965000", "191550.970000", "191551.972500", "191552.977500", "191553.980000", "191554.985000", "191555.990000", "191556.992500", "191557.997500", "191559.000000", "191600.005000", "191601.010000", "191602.012500", "191603.017500", "191604.020000", "191605.025000", "191606.030000", "191607.032500", "191608.037500", "191609.040000", "191610.045000", "191611.050000", "191612.052500", "191613.057500", "191614.062500", "191615.065000", "191616.070000", "191617.072500", "191618.077500", "191619.082500", "191620.085000", "191621.090000", "191622.092500", "191623.097500", "191624.102500", "191625.105000", "191626.110000", "191627.112500", "191628.117500", "191629.122500", "191630.125000", "191631.130000", "191632.132500", "191633.137500", "191634.142500", "191635.145000", "191636.150000", "191637.152500", "191638.157500", "191639.162500", "191640.165000", "191641.170000", "191642.172500", "191643.177500", "191644.182500", "191645.185000", "191646.190000", "191647.195000", "191648.197500", "191649.202500", "191650.205000", "191651.210000", "191652.215000", "191653.217500", "191654.222500", "191655.225000", "191656.230000", "191657.235000", "191658.237500", "191659.242500", "191700.245000", "191701.250000", "191702.255000", "191703.257500", "191704.262500", "191705.265000", "191706.270000", "191707.275000", "191708.277500", "191709.282500", "191710.285000", "191711.290000", "191712.295000", "191713.297500", "191714.302500", "191715.307500", "191716.310000", "191717.315000", "191718.317500", "191719.322500", "191720.327500", "191721.330000", "191722.335000", "191723.337500", "191724.342500", "191725.347500", "191726.350000", "191727.355000", "191728.357500", "191729.362500", "191730.367500", "191731.370000", "191732.375000", "191733.377500", "191734.382500", "191735.387500", "191736.390000", "191737.395000", "191738.397500", "191739.402500", "191740.407500", "191741.410000", "191742.415000", "191743.417500", "191744.422500", "191745.427500", "191746.430000", "191747.435000", "191748.440000", "191749.442500", "191750.447500", "191751.450000", "191752.455000", "191753.460000", "191754.462500", "191755.467500", "191756.470000", "191757.475000", "191758.480000", "191759.482500", "191800.487500", "191801.490000", "191802.495000", "191803.500000", "191804.502500", "191805.507500", "191806.510000", "191807.515000", "191808.520000", "191809.522500", "191810.527500", "191811.530000", "191812.535000", "191813.540000", "191814.542500", "191815.547500", "191816.552500", "191817.555000", "191818.560000", "191819.562500", "191820.567500", "191821.572500", "191822.575000", "191823.580000", "191824.582500", "191825.587500", "191826.592500", "191827.595000", "191828.600000", "191829.602500", "191830.607500", "191831.612500", "191832.615000", "191833.620000", "191834.622500", "191835.627500", "191836.632500", "191837.635000", "191838.640000", "191839.642500", "191840.647500", "191841.652500", "191842.655000", "191843.660000", "191844.662500", "191845.667500", "191846.672500", "191847.675000", "191848.680000", "191849.685000", "191850.687500", "191851.692500", "191852.695000", "191853.700000", "191854.705000", "191855.707500", "191856.712500", "191857.715000", "191858.720000", "191859.725000", "191900.727500", "191901.732500", "191902.735000", "191903.740000", "191904.745000", "191905.747500", "191906.752500", "191907.755000", "191908.760000", "191909.765000", "191910.767500", "191911.772500", "191912.775000", "191913.780000", "191914.785000", "191915.787500", "191916.792500", "191917.795000", "191918.800000", "191919.805000", "191920.807500", "191921.812500", "191922.817500", "191923.820000", "191924.825000", "191925.827500", "191926.832500", "191927.837500", "191928.840000", "191929.845000", "191930.847500", "191931.852500", "191932.857500", "191933.860000", "191934.865000", "191935.867500", "191936.872500", "191937.877500", "191938.880000", "191939.885000", "191940.887500", "191941.892500", "191942.897500", "191943.900000", "191944.905000", "191945.907500", "191946.912500", "191947.917500", "191948.920000", "191949.925000", "191950.930000", "191951.932500", "191952.937500", "191953.940000", "191954.945000", "191955.950000", "191956.952500", "191957.957500", "191958.960000", "191959.965000", "192000.970000", "192001.972500", "192002.977500", "192003.980000", "192004.985000", "192005.990000", "192006.992500", "192007.997500", "192009.000000", "192010.005000", "192011.010000", "192012.012500", "192013.017500", "192014.020000", "192015.025000", "192016.030000", "192017.032500", "192018.037500", "192019.040000", "192020.045000", "192021.050000", "192022.052500", "192023.057500", "192024.062500", "192025.065000", "192026.070000", "192027.072500", "192028.077500", "192029.082500", "192030.085000", "192031.090000", "192032.092500", "192033.097500", "192034.102500", "192035.105000", "192036.110000", "192037.112500", "192038.117500", "192039.122500", "192040.125000", "192041.130000", "192042.132500", "192043.137500", "192044.142500", "192045.145000", "192046.150000", "192047.152500", "192048.157500", "192049.162500", "192050.165000", "192051.170000", "192052.172500", "192053.177500", "192054.182500", "192055.185000", "192056.190000", "192057.195000", "192058.197500", "192059.202500", "192100.205000", "192101.210000", "192102.215000", "192103.217500", "192104.222500", "192105.225000", "192106.230000", "192107.235000", "192108.237500", "192109.242500", "192110.245000", "192111.250000", "192112.255000", "192113.257500", "192114.262500", "192115.265000", "192116.270000", "192117.275000", "192118.277500", "192119.282500", "192120.285000", "192121.290000", "192122.295000", "192123.297500", "192124.302500", "192125.307500", "192126.310000", "192127.315000", "192128.317500", "192129.322500", "192130.327500", "192131.330000", "192132.335000", "192133.337500", "192134.342500", "192135.347500", "192136.350000", "192137.355000", "192138.357500", "192139.362500", "192140.367500", "192141.370000", "192142.375000", "192143.377500", "192144.382500", "192145.387500", "192146.390000", "192147.395000", "192148.397500", "192149.402500", "192150.407500", "192151.410000", "192152.415000", "192153.417500", "192154.422500", "192155.427500", "192156.430000", "192157.435000", "192158.440000", "192159.442500", "192200.447500", "192201.450000", "192202.455000", "192203.460000", "192204.462500", "192205.467500", "192206.470000", "192207.475000", "192208.480000", "192209.482500", "192210.487500", "192211.490000", "192212.495000", "192213.500000", "192214.502500", "192215.507500", "192216.510000", "192217.515000", "192218.520000", "192219.522500", "192220.527500", "192221.530000", "192222.535000", "192223.540000", "192224.542500", "192225.547500", "192226.552500", "192227.555000", "192228.560000", "192229.562500", "192230.567500", "192231.572500", "192232.575000", "192233.580000", "192234.582500", "192235.587500", "192236.592500", "192237.595000", "192238.600000", "192239.602500", "192240.607500", "192241.612500", "192242.615000", "192243.620000", "192244.622500", "192245.627500", "192246.632500", "192247.635000", "192248.640000", "192249.642500", "192250.647500", "192251.652500", "192252.655000", "192253.660000", "192254.662500", "192255.667500", "192256.672500", "192257.675000", "192258.680000", "192259.685000", "192300.687500", "192301.692500", "192302.695000", "192303.700000", "192304.705000", "192305.707500", "192306.712500", "192307.715000", "192308.720000", "192309.725000", "192310.727500", "192311.732500", "192312.735000", "192313.740000", "192314.745000", "192315.747500", "192316.752500", "192317.755000", "192318.760000", "192319.765000", "192320.767500", "192321.772500", "192322.775000", "192323.780000", "192324.785000", "192325.787500", "192326.792500", "192327.795000", "192328.800000", "192329.805000", "192330.807500", "192331.812500", "192332.817500", "192333.820000", "192334.825000", "192335.827500", "192336.832500", "192337.837500", "192338.840000", "192339.845000", "192340.847500", "192341.852500", "192342.857500", "192343.860000", "192344.865000", "192345.867500", "192346.872500", "192347.877500", "192348.880000", "192349.885000", "192350.887500", "192351.892500", "192352.897500", "192353.900000", "192354.905000", "192355.907500", "192356.912500", "192357.917500", "192358.920000", "192359.925000", "192400.930000", "192401.932500", "192402.937500", "192403.940000", "192404.945000", "192405.950000", "192406.952500", "192407.957500", "192408.960000", "192409.965000", "192410.970000", "192411.972500", "192412.977500", "192413.980000", "192414.985000", "192415.990000", "192416.992500", "192417.997500", "192419.000000", "192420.005000", "192421.010000", "192422.012500", "192423.017500", "192424.020000", "192425.025000", "192426.030000", "192427.032500", "192428.037500", "192429.040000", "192430.045000", "192431.050000", "192432.052500", "192433.057500", "192434.062500", "192435.065000", "192436.070000", "192437.072500", "192438.077500", "192439.082500", "192440.085000", "192441.090000", "192442.092500", "192443.097500", "192444.102500", "192445.105000", "192446.110000", "192447.112500", "192448.117500", "192449.122500", "192450.125000", "192451.130000", "192452.132500", "192453.137500", "192454.142500", "192455.145000", "192456.150000", "192457.152500", "192458.157500", "192459.162500", "192500.165000", "192501.170000", "192502.172500", "192503.177500", "192504.182500", "192505.185000", "192506.190000", "192507.195000", "192508.197500", "192509.202500", "192510.205000", "192511.210000", "192512.215000", "192513.217500", "192514.222500", "192515.225000", "192516.230000", "192517.235000", "192518.237500", "192519.242500", "192520.245000", "192521.250000", "192522.255000", "192523.257500", "192524.262500", "192525.265000", "192526.270000", "192527.275000", "192528.277500", "192529.282500", "192530.285000", "192531.290000", "192532.295000", "192533.297500", "192534.302500", "192535.307500", "192536.310000", "192537.315000", "192538.317500", "192539.322500", "192540.327500", "192541.330000", "192542.335000", "192543.337500", "192544.342500", "192545.347500", "192546.350000", "192547.355000", "192548.357500", "192549.362500", "192550.367500", "192551.370000", "192552.375000", "192553.377500", "192554.382500", "192555.387500", "192556.390000", "192557.395000", "192558.397500", "192559.402500", "192600.407500", "192601.410000", "192602.415000", "192603.417500", "192604.422500", "192605.427500", "192606.430000", "192607.435000", "192608.440000", "192609.442500", "192610.447500", "192611.450000", "192612.455000", "192613.460000", "192614.462500", "192615.467500", "192616.470000", "192617.475000", "192618.480000", "192619.482500", "192620.487500", "192621.490000", "192622.495000", "192623.500000", "192624.502500", "192625.507500", "192626.510000", "192627.515000", "192628.520000", "192629.522500", "192630.527500", "192631.530000", "192632.535000", "192633.540000", "192634.542500", "192635.547500", "192636.552500", "192637.555000", "192638.560000", "192639.562500", "192640.567500", "192641.572500", "192642.575000", "192643.580000", "192644.582500", "192645.587500", "192646.592500", "192647.595000", "192648.600000", "192649.602500", "192650.607500", "192651.612500", "192652.615000", "192653.620000", "192654.622500", "192655.627500", "192656.632500", "192657.635000", "192658.640000", "192659.642500", "192700.647500", "192701.652500", "192702.655000", "192703.660000", "192704.662500", "192705.667500", "192706.672500", "192707.675000", "192708.680000", "192709.685000", "192710.687500", "192711.692500", "192712.695000", "192713.700000", "192714.705000", "192715.707500", "192716.712500", "192717.715000", "192718.720000", "192719.725000", "192720.727500", "192721.732500", "192722.735000", "192723.740000", "192724.745000", "192725.747500", "192726.752500", "192727.755000", "192728.760000", "192729.765000", "192730.767500", "192731.772500", "192732.775000", "192733.780000", "192734.785000", "192735.787500", "192736.792500", "192737.795000", "192738.800000", "192739.805000", "192740.807500", "192741.812500", "192742.817500", "192743.820000", "192744.825000", "192745.827500", "192746.832500", "192747.837500", "192748.840000", "192749.845000", "192750.847500", "192751.852500", "192752.857500", "192753.860000", "192754.865000", "192755.867500", "192756.872500", "192757.877500", "192758.880000", "192759.885000", "192800.887500", "192801.892500", "192802.897500", "192803.900000", "192804.905000", "192805.907500", "192806.912500", "192807.917500", "192808.920000", "192809.925000", "192810.930000", "192811.932500", "192812.937500", "192813.940000", "192814.945000", "192815.950000", "192816.952500", "192817.957500", "192818.960000", "192819.965000", "192820.970000", "192821.972500", "192822.977500", "192823.980000", "192824.985000", "192825.990000", "192826.992500", "192827.997500", "192829.000000", "192830.005000", "192831.010000", "192832.012500", "192833.017500", "192834.020000", "192835.025000", "192836.030000", "192837.032500", "192838.037500", "192839.040000", "192840.045000", "192841.050000", "192842.052500", "192843.057500", "192844.062500", "192845.065000", "192846.070000", "192847.072500", "192848.077500", "192849.082500", "192850.085000", "192851.090000", "192852.092500", "192853.097500", "192854.102500", "192855.105000", "192856.110000", "192857.112500", "192858.117500", "192859.122500", "192900.125000", "192901.130000", "192902.132500", "192903.137500", "192904.142500", "192905.145000", "192906.150000", "192907.152500", "192908.157500", "192909.162500", "192910.165000", "192911.170000", "192912.172500", "192913.177500", "192914.182500", "192915.185000", "192916.190000", "192917.195000", "192918.197500", "192919.202500", "192920.205000", "192921.210000", "192922.215000", "192923.217500", "192924.222500", "192925.225000", "192926.230000", "192927.235000", "192928.237500", "192929.242500", "192930.245000", "192931.250000", "192932.255000", "192933.257500", "192934.262500", "192935.265000", "192936.270000", "192937.275000", "192938.277500", "192939.282500", "192940.285000", "192941.290000", "192942.295000", "192943.297500", "192944.302500", "192945.307500", "192946.310000", "192947.315000", "192948.317500", "192949.322500", "192950.327500", "192951.330000", "192952.335000", "192953.337500", "192954.342500", "192955.347500", "192956.350000", "192957.355000", "192958.357500", "192959.362500", "193000.367500", "193001.370000", "193002.375000", "193003.377500", "193004.382500", "193005.387500", "193006.390000", "193007.395000", "193008.397500", "193009.402500", "193010.407500", "193011.410000", "193012.415000", "193013.417500", "193014.422500", "193015.427500", "193016.430000", "193017.435000", "193018.440000", "193019.442500", "193020.447500", "193021.450000", "193022.455000", "193023.460000", "193024.462500", "193025.467500", "193026.470000", "193027.475000", "193028.480000", "193029.482500", "193030.487500", "193031.490000", "193032.495000", "193033.500000", "193034.502500", "193035.507500", "193036.510000", "193037.515000", "193038.520000", "193039.522500", "193040.527500", "193041.530000", "193042.535000", "193043.540000", "193044.542500", "193045.547500", "193046.552500", "193047.555000", "193048.560000", "193049.562500", "193050.567500", "193051.572500", "193052.575000", "193053.580000", "193054.582500", "193055.587500", "193056.592500", "193057.595000", "193058.600000", "193059.602500", "193100.607500", "193101.612500", "193102.615000", "193103.620000", "193104.622500", "193105.627500", "193106.632500", "193107.635000", "193108.640000", "193109.642500", "193110.647500", "193111.652500", "193112.655000", "193113.660000", "193114.662500", "193115.667500", "193116.672500", "193117.675000", "193118.680000", "193119.685000", "193120.687500", "193121.692500", "193122.695000", "193123.700000", "193124.705000", "193125.707500", "193126.712500", "193127.715000", "193128.720000", "193129.725000", "193130.727500", "193131.732500", "193132.735000", "193133.740000", "193134.745000", "193135.747500", "193136.752500", "193137.755000", "193138.760000", "193139.765000", "193140.767500", "193141.772500", "193142.775000", "193143.780000", "193144.785000", "193145.787500"],
