{
  "AcquisitionMatrixPE": 64,
  "AcquisitionNumber": 1,
  "AcquisitionTime": "18:59:20.027500",
  "BandwidthPerPixelPhaseEncode": 19.531,
  "BaseResolution": 64,
  "CoilString": "C:HEA;HEP",
  "ConversionSoftware": "dcm2niix",
  "ConversionSoftwareVersion": "v1.0.20190902",
  "DerivedVendorReportedEchoSpacing": 0.00080001,
  "DeviceSerialNumber": "26099",
  "DwellTime": 5.3e-06,
  "EchoTime": 0.0548,
  "EffectiveEchoSpacing": 0.00080001,
  "FlipAngle": 75,
  "ImageComments": "Unaliased_MB4_PE3_LB_SENSE1",
  "ImageOrientationPatientDICOM": [1, -1e-16, 0, 1e-16, 0.937889, -0.346936],
  "ImageType": [
    "ORIGINAL",
    "PRIMARY",
    "M",
    "MB",
    "ND",
    "MOSAIC"
],
  "ImagingFrequency": 63.6399,
  "InPlanePhaseEncodingDirectionDICOM": "COL",
  "InstitutionAddress": "Bedford_Way_26_London_London_GB_WC1H_0AP",
  "InstitutionName": "bbk-ucl",
  "InstitutionalDepartmentName": "Department",
  "MRAcquisitionType": "2D",
  "MagneticFieldStrength": 1.5,
  "Manufacturer": "Siemens",
  "ManufacturersModelName": "Avanto",
  "Modality": "MR",
  "MultibandAccelerationFactor": 4,
  "PartialFourier": 1,
  "PatientPosition": "HFS",
  "PercentPhaseFOV": 100,
  "PhaseEncodingDirection": "j-",
  "PhaseEncodingSteps": 64,
  "PhaseResolution": 1,
  "PixelBandwidth": 1474,
  "ProcedureStepDescription": "ucl_bbk_Jeremy",
  "ProtocolName": "EcL4-3.2m-40-1474-1s-55e",
  "PulseSequenceDetails": "%CustomerSeq%_cmrr_mbep2d_bold",
  "ReceiveCoilName": "32Ch_Head",
  "ReconMatrixPE": 64,
  "RepetitionTime": 1,
  "SAR": 0.0478235,
  "ScanOptions": "FS",
  "ScanningSequence": "EP",
  "SequenceName": "epfid2d1_64",
  "SequenceVariant": "SK_SS",
  "SeriesDescription": "EcL4-3.2m-40-1474-1s-55e",
  "SeriesNumber": 7,
  "ShimSetting": [166, 3, 323, 822, -70, 601, -739, 75],
  "SliceThickness": 3.2,
  "SliceTiming": [0, 0.7025, 0.4, 0.1, 0.8025, 0.5, 0.2, 0.9025, 0.6, 0.3, 0, 0.7025, 0.4, 0.1, 0.8025, 0.5, 0.2, 0.9025, 0.6, 0.3, 0, 0.7025, 0.4, 0.1, 0.8025, 0.5, 0.2, 0.9025, 0.6, 0.3, 0, 0.7025, 0.4, 0.1, 0.8025, 0.5, 0.2, 0.9025, 0.6, 0.3],
  "SoftwareVersions": "syngo_MR_B17",
  "SpacingBetweenSlices": 3.2,
  "StationName": "MRC26099",
  "TaskName": "citizenfour",
  "CogAtlasID": "http://www.cognitiveatlas.org/task/id/tsk_jbg1oF4D9OTkO/",
  "TotalReadoutTime": 0.0504006,
  "TxRefAmp": 212.802,
  "dcmmeta_affine": [
    [-3.203125, 3.203124970260285e-16, -1.1101941725653907e-16, 102.5],
    [3.203124970260285e-16, 3.0041754245758057, -1.1101940870285034, -68.47823333740234],
    [0.0, 1.1112782955169678, 3.00124454498291, -77.09011840820312],
    [0.0, 0.0, 0.0, 1.0]
],
  "dcmmeta_reorient_transform": [
    [0.0, -1.0, 0.0, 63.0],
    [1.0, 0.0, 0.0, 0.0],
    [0.0, 0.0, 1.0, 0.0],
    [0.0, 0.0, 0.0, 1.0]
],
  "dcmmeta_shape": [64, 64, 40, 1159],
  "dcmmeta_slice_dim": 2,
  "dcmmeta_version": 0.6,
  "global": {
    "const": {
      "AcquisitionMatrix": [64, 0, 0, 64],
      "AngioFlag": "N",
      "BitsAllocated": 16,
      "BitsStored": 12,
      "Columns": 448,
      "EchoNumbers": 1,
      "EchoTime": 54.8,
      "EchoTrainLength": 1,
      "FlipAngle": 75.0,
      "HighBit": 11,
      "ImageOrientationPatient": [1.0, -1e-16, 0.0, 1e-16, 0.93788893102958, -0.3469356612575],
      "ImagePositionPatient": [-717.5, -697.58651307659, 206.28584546667],
      "ImageType": [
        "ORIGINAL",
        "PRIMARY",
        "M",
        "MB",
        "ND",
        "MOSAIC"
],
      "ImagedNucleus": "1H",
      "ImagingFrequency": 63.639896,
      "InPlanePhaseEncodingDirection": "COL",
      "MRAcquisitionType": "2D",
      "MagneticFieldStrength": 1.5,
      "Manufacturer": "SIEMENS",
      "ManufacturerModelName": "Avanto",
      "Modality": "MR",
      "NumberOfAverages": 1.0,
      "NumberOfPhaseEncodingSteps": 64,
      "PercentPhaseFieldOfView": 100.0,
      "PercentSampling": 100.0,
      "PerformedProcedureStepStartTime": "170855.937000",
      "PhotometricInterpretation": "MONOCHROME2",
      "PixelBandwidth": 1474.0,
      "PixelRepresentation": 0,
      "PixelSpacing": [3.203125, 3.203125],
      "ProtocolName": "EcL4-3.2m-40-1474-1s-55e",
      "RepetitionTime": 1000.0,
      "Rows": 448,
      "SAR": 0.0478235213856,
      "SamplesPerPixel": 1,
      "ScanOptions": "FS",
      "ScanningSequence": "EP",
      "SequenceName": "epfid2d1_64",
      "SequenceVariant": [
        "SK",
        "SS"
],
      "SeriesDescription": "EcL4-3.2m-40-1474-1s-55e",
      "SeriesNumber": 7,
      "SeriesTime": "185958.140000",
      "SliceLocation": -48.544427107281,
      "SliceThickness": 3.2000000476837,
      "SmallestImagePixelValue": 0,
      "SoftwareVersions": "syngo MR B17",
      "SpacingBetweenSlices": 3.2000000713712,
      "SpecificCharacterSet": "ISO_IR 100",
      "StudyID": "1",
      "StudyTime": "170855.890000",
      "TransmitCoilName": "Body",
      "VariableFlipAngleFlag": "N",
      "WindowCenterWidthExplanation": "Algo1",
      "dBdt": 0.0},
    "slices": {}
  },
  "time": {
    "samples": {
      "AcquisitionNumber": [1, 2, 3, 4, 5, 6, 7, 8, 9, 10, 11, 12, 13, 14, 15, 16, 17, 18, 19, 20, 21, 22, 23, 24, 25, 26, 27, 28, 29, 30, 31, 32, 33, 34, 35, 36, 37, 38, 39, 40, 41, 42, 43, 44, 45, 46, 47, 48, 49, 50, 51, 52, 53, 54, 55, 56, 57, 58, 59, 60, 61, 62, 63, 64, 65, 66, 67, 68, 69, 70, 71, 72, 73, 74, 75, 76, 77, 78, 79, 80, 81, 82, 83, 84, 85, 86, 87, 88, 89, 90, 91, 92, 93, 94, 95, 96, 97, 98, 99, 100, 101, 102, 103, 104, 105, 106, 107, 108, 109, 110, 111, 112, 113, 114, 115, 116, 117, 118, 119, 120, 121, 122, 123, 124, 125, 126, 127, 128, 129, 130, 131, 132, 133, 134, 135, 136, 137, 138, 139, 140, 141, 142, 143, 144, 145, 146, 147, 148, 149, 150, 151, 152, 153, 154, 155, 156, 157, 158, 159, 160, 161, 162, 163, 164, 165, 166, 167, 168, 169, 170, 171, 172, 173, 174, 175, 176, 177, 178, 179, 180, 181, 182, 183, 184, 185, 186, 187, 188, 189, 190, 191, 192, 193, 194, 195, 196, 197, 198, 199, 200, 201, 202, 203, 204, 205, 206, 207, 208, 209, 210, 211, 212, 213, 214, 215, 216, 217, 218, 219, 220, 221, 222, 223, 224, 225, 226, 227, 228, 229, 230, 231, 232, 233, 234, 235, 236, 237, 238, 239, 240, 241, 242, 243, 244, 245, 246, 247, 248, 249, 250, 251, 252, 253, 254, 255, 256, 257, 258, 259, 260, 261, 262, 263, 264, 265, 266, 267, 268, 269, 270, 271, 272, 273, 274, 275, 276, 277, 278, 279, 280, 281, 282, 283, 284, 285, 286, 287, 288, 289, 290, 291, 292, 293, 294, 295, 296, 297, 298, 299, 300, 301, 302, 303, 304, 305, 306, 307, 308, 309, 310, 311, 312, 313, 314, 315, 316, 317, 318, 319, 320, 321, 322, 323, 324, 325, 326, 327, 328, 329, 330, 331, 332, 333, 334, 335, 336, 337, 338, 339, 340, 341, 342, 343, 344, 345, 346, 347, 348, 349, 350, 351, 352, 353, 354, 355, 356, 357, 358, 359, 360, 361, 362, 363, 364, 365, 366, 367, 368, 369, 370, 371, 372, 373, 374, 375, 376, 377, 378, 379, 380, 381, 382, 383, 384, 385, 386, 387, 388, 389, 390, 391, 392, 393, 394, 395, 396, 397, 398, 399, 400, 401, 402, 403, 404, 405, 406, 407, 408, 409, 410, 411, 412, 413, 414, 415, 416, 417, 418, 419, 420, 421, 422, 423, 424, 425, 426, 427, 428, 429, 430, 431, 432, 433, 434, 435, 436, 437, 438, 439, 440, 441, 442, 443, 444, 445, 446, 447, 448, 449, 450, 451, 452, 453, 454, 455, 456, 457, 458, 459, 460, 461, 462, 463, 464, 465, 466, 467, 468, 469, 470, 471, 472, 473, 474, 475, 476, 477, 478, 479, 480, 481, 482, 483, 484, 485, 486, 487, 488, 489, 490, 491, 492, 493, 494, 495, 496, 497, 498, 499, 500, 501, 502, 503, 504, 505, 506, 507, 508, 509, 510, 511, 512, 513, 514, 515, 516, 517, 518, 519, 520, 521, 522, 523, 524, 525, 526, 527, 528, 529, 530, 531, 532, 533, 534, 535, 536, 537, 538, 539, 540, 541, 542, 543, 544, 545, 546, 547, 548, 549, 550, 551, 552, 553, 554, 555, 556, 557, 558, 559, 560, 561, 562, 563, 564, 565, 566, 567, 568, 569, 570, 571, 572, 573, 574, 575, 576, 577, 578, 579, 580, 581, 582, 583, 584, 585, 586, 587, 588, 589, 590, 591, 592, 593, 594, 595, 596, 597, 598, 599, 600, 601, 602, 603, 604, 605, 606, 607, 608, 609, 610, 611, 612, 613, 614, 615, 616, 617, 618, 619, 620, 621, 622, 623, 624, 625, 626, 627, 628, 629, 630, 631, 632, 633, 634, 635, 636, 637, 638, 639, 640, 641, 642, 643, 644, 645, 646, 647, 648, 649, 650, 651, 652, 653, 654, 655, 656, 657, 658, 659, 660, 661, 662, 663, 664, 665, 666, 667, 668, 669, 670, 671, 672, 673, 674, 675, 676, 677, 678, 679, 680, 681, 682, 683, 684, 685, 686, 687, 688, 689, 690, 691, 692, 693, 694, 695, 696, 697, 698, 699, 700, 701, 702, 703, 704, 705, 706, 707, 708, 709, 710, 711, 712, 713, 714, 715, 716, 717, 718, 719, 720, 721, 722, 723, 724, 725, 726, 727, 728, 729, 730, 731, 732, 733, 734, 735, 736, 737, 738, 739, 740, 741, 742, 743, 744, 745, 746, 747, 748, 749, 750, 751, 752, 753, 754, 755, 756, 757, 758, 759, 760, 761, 762, 763, 764, 765, 766, 767, 768, 769, 770, 771, 772, 773, 774, 775, 776, 777, 778, 779, 780, 781, 782, 783, 784, 785, 786, 787, 788, 789, 790, 791, 792, 793, 794, 795, 796, 797, 798, 799, 800, 801, 802, 803, 804, 805, 806, 807, 808, 809, 810, 811, 812, 813, 814, 815, 816, 817, 818, 819, 820, 821, 822, 823, 824, 825, 826, 827, 828, 829, 830, 831, 832, 833, 834, 835, 836, 837, 838, 839, 840, 841, 842, 843, 844, 845, 846, 847, 848, 849, 850, 851, 852, 853, 854, 855, 856, 857, 858, 859, 860, 861, 862, 863, 864, 865, 866, 867, 868, 869, 870, 871, 872, 873, 874, 875, 876, 877, 878, 879, 880, 881, 882, 883, 884, 885, 886, 887, 888, 889, 890, 891, 892, 893, 894, 895, 896, 897, 898, 899, 900, 901, 902, 903, 904, 905, 906, 907, 908, 909, 910, 911, 912, 913, 914, 915, 916, 917, 918, 919, 920, 921, 922, 923, 924, 925, 926, 927, 928, 929, 930, 931, 932, 933, 934, 935, 936, 937, 938, 939, 940, 941, 942, 943, 944, 945, 946, 947, 948, 949, 950, 951, 952, 953, 954, 955, 956, 957, 958, 959, 960, 961, 962, 963, 964, 965, 966, 967, 968, 969, 970, 971, 972, 973, 974, 975, 976, 977, 978, 979, 980, 981, 982, 983, 984, 985, 986, 987, 988, 989, 990, 991, 992, 993, 994, 995, 996, 997, 998, 999, 1000, 1001, 1002, 1003, 1004, 1005, 1006, 1007, 1008, 1009, 1010, 1011, 1012, 1013, 1014, 1015, 1016, 1017, 1018, 1019, 1020, 1021, 1022, 1023, 1024, 1025, 1026, 1027, 1028, 1029, 1030, 1031, 1032, 1033, 1034, 1035, 1036, 1037, 1038, 1039, 1040, 1041, 1042, 1043, 1044, 1045, 1046, 1047, 1048, 1049, 1050, 1051, 1052, 1053, 1054, 1055, 1056, 1057, 1058, 1059, 1060, 1061, 1062, 1063, 1064, 1065, 1066, 1067, 1068, 1069, 1070, 1071, 1072, 1073, 1074, 1075, 1076, 1077, 1078, 1079, 1080, 1081, 1082, 1083, 1084, 1085, 1086, 1087, 1088, 1089, 1090, 1091, 1092, 1093, 1094, 1095, 1096, 1097, 1098, 1099, 1100, 1101, 1102, 1103, 1104, 1105, 1106, 1107, 1108, 1109, 1110, 1111, 1112, 1113, 1114, 1115, 1116, 1117, 1118, 1119, 1120, 1121, 1122, 1123, 1124, 1125, 1126, 1127, 1128, 1129, 1130, 1131, 1132, 1133, 1134, 1135, 1136, 1137, 1138, 1139, 1140, 1141, 1142, 1143, 1144, 1145, 1146, 1147, 1148, 1149, 1150, 1151, 1152, 1153, 1154, 1155, 1156, 1157, 1158, 1159],
      "AcquisitionTime": ["185920.027500", "185921.030000", "185922.035000", "185923.037500", "185924.042500", "185925.047500", "185926.050000", "185927.055000", "185928.057500", "185929.062500", "185930.067500", "185931.070000", "185932.075000", "185933.077500", "185934.082500", "185935.087500", "185936.090000", "185937.095000", "185938.097500", "185939.102500", "185940.107500", "185941.110000", "185942.115000", "185943.117500", "185944.122500", "185945.127500", "185946.130000", "185947.135000", "185948.140000", "185949.142500", "185950.147500", "185951.150000", "185952.155000", "185953.160000", "185954.162500", "185955.167500", "185956.170000", "185957.175000", "185958.180000", "185959.182500", "190000.187500", "190001.190000", "190002.195000", "190003.200000", "190004.202500", "190005.207500", "190006.210000", "190007.215000", "190008.220000", "190009.222500", "190010.227500", "190011.230000", "190012.235000", "190013.240000", "190014.242500", "190015.247500", "190016.250000", "190017.255000", "190018.260000", "190019.262500", "190020.267500", "190021.272500", "190022.275000", "190023.280000", "190024.282500", "190025.287500", "190026.292500", "190027.295000", "190028.300000", "190029.302500", "190030.307500", "190031.312500", "190032.315000", "190033.320000", "190034.322500", "190035.327500", "190036.332500", "190037.335000", "190038.340000", "190039.342500", "190040.347500", "190041.352500", "190042.355000", "190043.360000", "190044.362500", "190045.367500", "190046.372500", "190047.375000", "190048.380000", "190049.382500", "190050.387500", "190051.392500", "190052.395000", "190053.400000", "190054.405000", "190055.407500", "190056.412500", "190057.415000", "190058.420000", "190059.425000", "190100.427500", "190101.432500", "190102.435000", "190103.440000", "190104.445000", "190105.447500", "190106.452500", "190107.455000", "190108.460000", "190109.465000", "190110.467500", "190111.472500", "190112.475000", "190113.480000", "190114.485000", "190115.487500", "190116.492500", "190117.495000", "190118.500000", "190119.505000", "190120.507500", "190121.512500", "190122.517500", "190123.520000", "190124.525000", "190125.527500", "190126.532500", "190127.537500", "190128.540000", "190129.545000", "190130.547500", "190131.552500", "190132.557500", "190133.560000", "190134.565000", "190135.567500", "190136.572500", "190137.577500", "190138.580000", "190139.585000", "190140.587500", "190141.592500", "190142.597500", "190143.600000", "190144.605000", "190145.607500", "190146.612500", "190147.617500", "190148.620000", "190149.625000", "190150.627500", "190151.632500", "190152.637500", "190153.640000", "190154.645000", "190155.650000", "190156.652500", "190157.657500", "190158.660000", "190159.665000", "190200.670000", "190201.672500", "190202.677500", "190203.680000", "190204.685000", "190205.690000", "190206.692500", "190207.697500", "190208.700000", "190209.705000", "190210.710000", "190211.712500", "190212.717500", "190213.720000", "190214.725000", "190215.730000", "190216.732500", "190217.737500", "190218.740000", "190219.745000", "190220.750000", "190221.752500", "190222.757500", "190223.762500", "190224.765000", "190225.770000", "190226.772500", "190227.777500", "190228.782500", "190229.785000", "190230.790000", "190231.792500", "190232.797500", "190233.802500", "190234.805000", "190235.810000", "190236.812500", "190237.817500", "190238.822500", "190239.825000", "190240.830000", "190241.832500", "190242.837500", "190243.842500", "190244.845000", "190245.850000", "190246.852500", "190247.857500", "190248.862500", "190249.865000", "190250.870000", "190251.872500", "190252.877500", "190253.882500", "190254.885000", "190255.890000", "190256.895000", "190257.897500", "190258.902500", "190259.905000", "190300.910000", "190301.915000", "190302.917500", "190303.922500", "190304.925000", "190305.930000", "190306.935000", "190307.937500", "190308.942500", "190309.945000", "190310.950000", "190311.955000", "190312.957500", "190313.962500", "190314.965000", "190315.970000", "190316.975000", "190317.977500", "190318.982500", "190319.985000", "190320.990000", "190321.995000", "190322.997500", "190324.002500", "190325.005000", "190326.010000", "190327.015000", "190328.017500", "190329.022500", "190330.027500", "190331.030000", "190332.035000", "190333.037500", "190334.042500", "190335.047500", "190336.050000", "190337.055000", "190338.057500", "190339.062500", "190340.067500", "190341.070000", "190342.075000", "190343.077500", "190344.082500", "190345.087500", "190346.090000", "190347.095000", "190348.097500", "190349.102500", "190350.107500", "190351.110000", "190352.115000", "190353.117500", "190354.122500", "190355.127500", "190356.130000", "190357.135000", "190358.140000", "190359.142500", "190400.147500", "190401.150000", "190402.155000", "190403.160000", "190404.162500", "190405.167500", "190406.170000", "190407.175000", "190408.180000", "190409.182500", "190410.187500", "190411.190000", "190412.195000", "190413.200000", "190414.202500", "190415.207500", "190416.210000", "190417.215000", "190418.220000", "190419.222500", "190420.227500", "190421.230000", "190422.235000", "190423.240000", "190424.242500", "190425.247500", "190426.250000", "190427.255000", "190428.260000", "190429.262500", "190430.267500", "190431.272500", "190432.275000", "190433.280000", "190434.282500", "190435.287500", "190436.292500", "190437.295000", "190438.300000", "190439.302500", "190440.307500", "190441.312500", "190442.315000", "190443.320000", "190444.322500", "190445.327500", "190446.332500", "190447.335000", "190448.340000", "190449.342500", "190450.347500", "190451.352500", "190452.355000", "190453.360000", "190454.362500", "190455.367500", "190456.372500", "190457.375000", "190458.380000", "190459.382500", "190500.387500", "190501.392500", "190502.395000", "190503.400000", "190504.405000", "190505.407500", "190506.412500", "190507.415000", "190508.420000", "190509.425000", "190510.427500", "190511.432500", "190512.435000", "190513.440000", "190514.445000", "190515.447500", "190516.452500", "190517.455000", "190518.460000", "190519.465000", "190520.467500", "190521.472500", "190522.475000", "190523.480000", "190524.485000", "190525.487500", "190526.492500", "190527.495000", "190528.500000", "190529.505000", "190530.507500", "190531.512500", "190532.517500", "190533.520000", "190534.525000", "190535.527500", "190536.532500", "190537.537500", "190538.540000", "190539.545000", "190540.547500", "190541.552500", "190542.557500", "190543.560000", "190544.565000", "190545.567500", "190546.572500", "190547.577500", "190548.580000", "190549.585000", "190550.587500", "190551.592500", "190552.597500", "190553.600000", "190554.605000", "190555.607500", "190556.612500", "190557.617500", "190558.620000", "190559.625000", "190600.627500", "190601.632500", "190602.637500", "190603.640000", "190604.645000", "190605.650000", "190606.652500", "190607.657500", "190608.660000", "190609.665000", "190610.670000", "190611.672500", "190612.677500", "190613.680000", "190614.685000", "190615.690000", "190616.692500", "190617.697500", "190618.700000", "190619.705000", "190620.710000", "190621.712500", "190622.717500", "190623.720000", "190624.725000", "190625.730000", "190626.732500", "190627.737500", "190628.740000", "190629.745000", "190630.750000", "190631.752500", "190632.757500", "190633.762500", "190634.765000", "190635.770000", "190636.772500", "190637.777500", "190638.782500", "190639.785000", "190640.790000", "190641.792500", "190642.797500", "190643.802500", "190644.805000", "190645.810000", "190646.812500", "190647.817500", "190648.822500", "190649.825000", "190650.830000", "190651.832500", "190652.837500", "190653.842500", "190654.845000", "190655.850000", "190656.852500", "190657.857500", "190658.862500", "190659.865000", "190700.870000", "190701.872500", "190702.877500", "190703.882500", "190704.885000", "190705.890000", "190706.895000", "190707.897500", "190708.902500", "190709.905000", "190710.910000", "190711.915000", "190712.917500", "190713.922500", "190714.925000", "190715.930000", "190716.935000", "190717.937500", "190718.942500", "190719.945000", "190720.950000", "190721.955000", "190722.957500", "190723.962500", "190724.965000", "190725.970000", "190726.975000", "190727.977500", "190728.982500", "190729.985000", "190730.990000", "190731.995000", "190732.997500", "190734.002500", "190735.005000", "190736.010000", "190737.015000", "190738.017500", "190739.022500", "190740.027500", "190741.030000", "190742.035000", "190743.037500", "190744.042500", "190745.047500", "190746.050000", "190747.055000", "190748.057500", "190749.062500", "190750.067500", "190751.070000", "190752.075000", "190753.077500", "190754.082500", "190755.087500", "190756.090000", "190757.095000", "190758.097500", "190759.102500", "190800.107500", "190801.110000", "190802.115000", "190803.117500", "190804.122500", "190805.127500", "190806.130000", "190807.135000", "190808.140000", "190809.142500", "190810.147500", "190811.150000", "190812.155000", "190813.160000", "190814.162500", "190815.167500", "190816.170000", "190817.175000", "190818.180000", "190819.182500", "190820.187500", "190821.190000", "190822.195000", "190823.200000", "190824.202500", "190825.207500", "190826.210000", "190827.215000", "190828.220000", "190829.222500", "190830.227500", "190831.230000", "190832.235000", "190833.240000", "190834.242500", "190835.247500", "190836.250000", "190837.255000", "190838.260000", "190839.262500", "190840.267500", "190841.272500", "190842.275000", "190843.280000", "190844.282500", "190845.287500", "190846.292500", "190847.295000", "190848.300000", "190849.302500", "190850.307500", "190851.312500", "190852.315000", "190853.320000", "190854.322500", "190855.327500", "190856.332500", "190857.335000", "190858.340000", "190859.342500", "190900.347500", "190901.352500", "190902.355000", "190903.360000", "190904.362500", "190905.367500", "190906.372500", "190907.375000", "190908.380000", "190909.382500", "190910.387500", "190911.392500", "190912.395000", "190913.400000", "190914.405000", "190915.407500", "190916.412500", "190917.415000", "190918.420000", "190919.425000", "190920.427500", "190921.432500", "190922.435000", "190923.440000", "190924.445000", "190925.447500", "190926.452500", "190927.455000", "190928.460000", "190929.465000", "190930.467500", "190931.472500", "190932.475000", "190933.480000", "190934.485000", "190935.487500", "190936.492500", "190937.495000", "190938.500000", "190939.505000", "190940.507500", "190941.512500", "190942.517500", "190943.520000", "190944.525000", "190945.527500", "190946.532500", "190947.537500", "190948.540000", "190949.545000", "190950.547500", "190951.552500", "190952.557500", "190953.560000", "190954.565000", "190955.567500", "190956.572500", "190957.577500", "190958.580000", "190959.585000", "191000.587500", "191001.592500", "191002.597500", "191003.600000", "191004.605000", "191005.607500", "191006.612500", "191007.617500", "191008.620000", "191009.625000", "191010.627500", "191011.632500", "191012.637500", "191013.640000", "191014.645000", "191015.650000", "191016.652500", "191017.657500", "191018.660000", "191019.665000", "191020.670000", "191021.672500", "191022.677500", "191023.680000", "191024.685000", "191025.690000", "191026.692500", "191027.697500", "191028.700000", "191029.705000", "191030.710000", "191031.712500", "191032.717500", "191033.720000", "191034.725000", "191035.730000", "191036.732500", "191037.737500", "191038.740000", "191039.745000", "191040.750000", "191041.752500", "191042.757500", "191043.762500", "191044.765000", "191045.770000", "191046.772500", "191047.777500", "191048.782500", "191049.785000", "191050.790000", "191051.792500", "191052.797500", "191053.802500", "191054.805000", "191055.810000", "191056.812500", "191057.817500", "191058.822500", "191059.825000", "191100.830000", "191101.832500", "191102.837500", "191103.842500", "191104.845000", "191105.850000", "191106.852500", "191107.857500", "191108.862500", "191109.865000", "191110.870000", "191111.872500", "191112.877500", "191113.882500", "191114.885000", "191115.890000", "191116.895000", "191117.897500", "191118.902500", "191119.905000", "191120.910000", "191121.915000", "191122.917500", "191123.922500", "191124.925000", "191125.930000", "191126.935000", "191127.937500", "191128.942500", "191129.945000", "191130.950000", "191131.955000", "191132.957500", "191133.962500", "191134.965000", "191135.970000", "191136.975000", "191137.977500", "191138.982500", "191139.985000", "191140.990000", "191141.995000", "191142.997500", "191144.002500", "191145.005000", "191146.010000", "191147.015000", "191148.017500", "191149.022500", "191150.027500", "191151.030000", "191152.035000", "191153.037500", "191154.042500", "191155.047500", "191156.050000", "191157.055000", "191158.057500", "191159.062500", "191200.067500", "191201.070000", "191202.075000", "191203.077500", "191204.082500", "191205.087500", "191206.090000", "191207.095000", "191208.097500", "191209.102500", "191210.107500", "191211.110000", "191212.115000", "191213.117500", "191214.122500", "191215.127500", "191216.130000", "191217.135000", "191218.140000", "191219.142500", "191220.147500", "191221.150000", "191222.155000", "191223.160000", "191224.162500", "191225.167500", "191226.170000", "191227.175000", "191228.180000", "191229.182500", "191230.187500", "191231.190000", "191232.195000", "191233.200000", "191234.202500", "191235.207500", "191236.210000", "191237.215000", "191238.220000", "191239.222500", "191240.227500", "191241.230000", "191242.235000", "191243.240000", "191244.242500", "191245.247500", "191246.250000", "191247.255000", "191248.260000", "191249.262500", "191250.267500", "191251.272500", "191252.275000", "191253.280000", "191254.282500", "191255.287500", "191256.292500", "191257.295000", "191258.300000", "191259.302500", "191300.307500", "191301.312500", "191302.315000", "191303.320000", "191304.322500", "191305.327500", "191306.332500", "191307.335000", "191308.340000", "191309.342500", "191310.347500", "191311.352500", "191312.355000", "191313.360000", "191314.362500", "191315.367500", "191316.372500", "191317.375000", "191318.380000", "191319.382500", "191320.387500", "191321.392500", "191322.395000", "191323.400000", "191324.405000", "191325.407500", "191326.412500", "191327.415000", "191328.420000", "191329.425000", "191330.427500", "191331.432500", "191332.435000", "191333.440000", "191334.445000", "191335.447500", "191336.452500", "191337.455000", "191338.460000", "191339.465000", "191340.467500", "191341.472500", "191342.475000", "191343.480000", "191344.485000", "191345.487500", "191346.492500", "191347.495000", "191348.500000", "191349.505000", "191350.507500", "191351.512500", "191352.517500", "191353.520000", "191354.525000", "191355.527500", "191356.532500", "191357.537500", "191358.540000", "191359.545000", "191400.547500", "191401.552500", "191402.557500", "191403.560000", "191404.565000", "191405.567500", "191406.572500", "191407.577500", "191408.580000", "191409.585000", "191410.587500", "191411.592500", "191412.597500", "191413.600000", "191414.605000", "191415.607500", "191416.612500", "191417.617500", "191418.620000", "191419.625000", "191420.627500", "191421.632500", "191422.637500", "191423.640000", "191424.645000", "191425.650000", "191426.652500", "191427.657500", "191428.660000", "191429.665000", "191430.670000", "191431.672500", "191432.677500", "191433.680000", "191434.685000", "191435.690000", "191436.692500", "191437.697500", "191438.700000", "191439.705000", "191440.710000", "191441.712500", "191442.717500", "191443.720000", "191444.725000", "191445.730000", "191446.732500", "191447.737500", "191448.740000", "191449.745000", "191450.750000", "191451.752500", "191452.757500", "191453.762500", "191454.765000", "191455.770000", "191456.772500", "191457.777500", "191458.782500", "191459.785000", "191500.790000", "191501.792500", "191502.797500", "191503.802500", "191504.805000", "191505.810000", "191506.812500", "191507.817500", "191508.822500", "191509.825000", "191510.830000", "191511.832500", "191512.837500", "191513.842500", "191514.845000", "191515.850000", "191516.852500", "191517.857500", "191518.862500", "191519.865000", "191520.870000", "191521.872500", "191522.877500", "191523.882500", "191524.885000", "191525.890000", "191526.895000", "191527.897500", "191528.902500", "191529.905000", "191530.910000", "191531.915000", "191532.917500", "191533.922500", "191534.925000", "191535.930000", "191536.935000", "191537.937500", "191538.942500", "191539.945000", "191540.950000", "191541.955000", "191542.957500", "191543.962500", "191544.965000", "191545.970000", "191546.975000", "191547.977500", "191548.982500", "191549.985000", "191550.990000", "191551.995000", "191552.997500", "191554.002500", "191555.005000", "191556.010000", "191557.015000", "191558.017500", "191559.022500", "191600.027500", "191601.030000", "191602.035000", "191603.037500", "191604.042500", "191605.047500", "191606.050000", "191607.055000", "191608.057500", "191609.062500", "191610.067500", "191611.070000", "191612.075000", "191613.077500", "191614.082500", "191615.087500", "191616.090000", "191617.095000", "191618.097500", "191619.102500", "191620.107500", "191621.110000", "191622.115000", "191623.117500", "191624.122500", "191625.127500", "191626.130000", "191627.135000", "191628.140000", "191629.142500", "191630.147500", "191631.150000", "191632.155000", "191633.160000", "191634.162500", "191635.167500", "191636.170000", "191637.175000", "191638.180000", "191639.182500", "191640.187500", "191641.190000", "191642.195000", "191643.200000", "191644.202500", "191645.207500", "191646.210000", "191647.215000", "191648.220000", "191649.222500", "191650.227500", "191651.230000", "191652.235000", "191653.240000", "191654.242500", "191655.247500", "191656.250000", "191657.255000", "191658.260000", "191659.262500", "191700.267500", "191701.272500", "191702.275000", "191703.280000", "191704.282500", "191705.287500", "191706.292500", "191707.295000", "191708.300000", "191709.302500", "191710.307500", "191711.312500", "191712.315000", "191713.320000", "191714.322500", "191715.327500", "191716.332500", "191717.335000", "191718.340000", "191719.342500", "191720.347500", "191721.352500", "191722.355000", "191723.360000", "191724.362500", "191725.367500", "191726.372500", "191727.375000", "191728.380000", "191729.382500", "191730.387500", "191731.392500", "191732.395000", "191733.400000", "191734.405000", "191735.407500", "191736.412500", "191737.415000", "191738.420000", "191739.425000", "191740.427500", "191741.432500", "191742.435000", "191743.440000", "191744.445000", "191745.447500", "191746.452500", "191747.455000", "191748.460000", "191749.465000", "191750.467500", "191751.472500", "191752.475000", "191753.480000", "191754.485000", "191755.487500", "191756.492500", "191757.495000", "191758.500000", "191759.505000", "191800.507500", "191801.512500", "191802.517500", "191803.520000", "191804.525000", "191805.527500", "191806.532500", "191807.537500", "191808.540000", "19