{
  "AcquisitionMatrixPE": 64,
  "AcquisitionNumber": 1,
  "AcquisitionTime": "17:04:44.727500",
  "BandwidthPerPixelPhaseEncode": 19.531,
  "BaseResolution": 64,
  "CoilString": "C:HEA;HEP",
  "ConversionSoftware": "dcm2niix",
  "ConversionSoftwareVersion": "v1.0.20190902",
  "DerivedVendorReportedEchoSpacing": 0.00080001,
  "DeviceSerialNumber": "26099",
  "DwellTime": 5.3e-06,
  "EchoTime": 0.0548,
  "EffectiveEchoSpacing": 0.00080001,
  "FlipAngle": 75,
  "ImageComments": "Unaliased_MB4_PE3_LB_SENSE1",
  "ImageOrientationPatientDICOM": [1, 0, 0, 0, 0.987136, -0.159881],
  "ImageType": [
    "ORIGINAL",
    "PRIMARY",
    "M",
    "MB",
    "ND",
    "MOSAIC"
],
  "ImagingFrequency": 63.6393,
  "InPlanePhaseEncodingDirectionDICOM": "COL",
  "InstitutionAddress": "Bedford_Way_26_London_London_GB_WC1H_0AP",
  "InstitutionName": "University_College",
  "InstitutionalDepartmentName": "Department",
  "MRAcquisitionType": "2D",
  "MagneticFieldStrength": 1.5,
  "Manufacturer": "Siemens",
  "ManufacturersModelName": "Avanto",
  "Modality": "MR",
  "MultibandAccelerationFactor": 4,
  "PartialFourier": 1,
  "PatientPosition": "HFS",
  "PercentPhaseFOV": 100,
  "PhaseEncodingDirection": "j-",
  "PhaseEncodingSteps": 64,
  "PhaseResolution": 1,
  "PixelBandwidth": 1474,
  "ProcedureStepDescription": "ucl_bbk_Jeremy",
  "ProtocolName": "EcL4-3.2m-40-1474-1s-55e",
  "PulseSequenceDetails": "%CustomerSeq%_cmrr_mbep2d_bold",
  "ReceiveCoilName": "32Ch_Head",
  "ReconMatrixPE": 64,
  "RepetitionTime": 1,
  "SAR": 0.0388287,
  "ScanOptions": "FS",
  "ScanningSequence": "EP",
  "SequenceName": "epfid2d1_64",
  "SequenceVariant": "SK_SS",
  "SeriesDescription": "EcL4-3.2m-40-1474-1s-55e",
  "SeriesNumber": 7,
  "ShimSetting": [164, -103, 418, 965, -105, 208, -158, 232],
  "SliceThickness": 3.2,
  "SliceTiming": [0, 0.7025, 0.4, 0.1, 0.8025, 0.5025, 0.2, 0.9025, 0.6025, 0.3, 0, 0.7025, 0.4, 0.1, 0.8025, 0.5025, 0.2, 0.9025, 0.6025, 0.3, 0, 0.7025, 0.4, 0.1, 0.8025, 0.5025, 0.2, 0.9025, 0.6025, 0.3, 0, 0.7025, 0.4, 0.1, 0.8025, 0.5025, 0.2, 0.9025, 0.6025, 0.3],
  "SoftwareVersions": "syngo_MR_B17",
  "SpacingBetweenSlices": 3.2,
  "StationName": "MRC26099",
  "TaskName": "pulpfiction",
  "TotalReadoutTime": 0.0504006,
  "TxRefAmp": 219.282,
  "dcmmeta_affine": [
    [-3.203125, 0.0, 0.0, 102.5],
    [0.0, 3.1619207859039307, -0.5116198062896729, -83.15191650390625],
    [0.0, 0.5121194124221802, 3.1588361263275146, -44.59164810180664],
    [0.0, 0.0, 0.0, 1.0]
],
  "dcmmeta_reorient_transform": [
    [0.0, -1.0, 0.0, 63.0],
    [1.0, 0.0, 0.0, 0.0],
    [0.0, 0.0, 1.0, 0.0],
    [0.0, 0.0, 0.0, 1.0]
],
  "dcmmeta_shape": [64, 64, 40, 1677],
  "dcmmeta_slice_dim": 2,
  "dcmmeta_version": 0.6,
  "global": {
    "const": {
      "AcquisitionMatrix": [64, 0, 0, 64],
      "AngioFlag": "N",
      "BitsAllocated": 16,
      "BitsStored": 12,
      "Columns": 448,
      "EchoNumbers": 1,
      "EchoTime": 54.8,
      "EchoTrainLength": 1,
      "FlipAngle": 75.0,
      "HighBit": 11,
      "ImageOrientationPatient": [1.0, 0.0, 0.0, 0.0, 0.98713626451576, -0.1598811911322],
      "ImagePositionPatient": [-717.5, -723.13789693392, 85.99880843988],
      "ImageType": [
        "ORIGINAL",
        "PRIMARY",
        "M",
        "MB",
        "ND",
        "MOSAIC"
],
      "ImagedNucleus": "1H",
      "ImagingFrequency": 63.639343,
      "InPlanePhaseEncodingDirection": "COL",
      "MRAcquisitionType": "2D",
      "MagneticFieldStrength": 1.5,
      "Manufacturer": "SIEMENS",
      "ManufacturerModelName": "Avanto",
      "Modality": "MR",
      "NumberOfAverages": 1.0,
      "NumberOfPhaseEncodingSteps": 64,
      "PercentPhaseFieldOfView": 100.0,
      "PercentSampling": 100.0,
      "PerformedProcedureStepStartTime": "154025.578000",
      "PhotometricInterpretation": "MONOCHROME2",
      "PixelBandwidth": 1474.0,
      "PixelRepresentation": 0,
      "PixelSpacing": [3.203125, 3.203125],
      "ProtocolName": "EcL4-3.2m-40-1474-1s-55e",
      "RepetitionTime": 1000.0,
      "Rows": 448,
      "SAR": 0.03882869992618,
      "SamplesPerPixel": 1,
      "ScanOptions": "FS",
      "ScanningSequence": "EP",
      "SequenceName": "epfid2d1_64",
      "SequenceVariant": [
        "SK",
        "SS"
],
      "SeriesDescription": "EcL4-3.2m-40-1474-1s-55e",
      "SeriesNumber": 7,
      "SeriesTime": "170536.671000",
      "SliceLocation": -30.723605798516,
      "SliceThickness": 3.2000000476837,
      "SmallestImagePixelValue": 0,
      "SoftwareVersions": "syngo MR B17",
      "SpacingBetweenSlices": 3.2000000227075,
      "SpecificCharacterSet": "ISO_IR 100",
      "StudyID": "1",
      "StudyTime": "154025.531000",
      "TransmitCoilName": "Body",
      "VariableFlipAngleFlag": "N",
      "WindowCenterWidthExplanation": "Algo1",
      "dBdt": 0.0},
    "slices": {}
  },
  "time": {
    "samples": {
      "AcquisitionNumber": [1, 2, 3, 4, 5, 6, 7, 8, 9, 10, 11, 12, 13, 14, 15, 16, 17, 18, 19, 20, 21, 22, 23, 24, 25, 26, 27, 28, 29, 30, 31, 32, 33, 34, 35, 36, 37, 38, 39, 40, 41, 42, 43, 44, 45, 46, 47, 48, 49, 50, 51, 52, 53, 54, 55, 56, 57, 58, 59, 60, 61, 62, 63, 64, 65, 66, 67, 68, 69, 70, 71, 72, 73, 74, 75, 76, 77, 78, 79, 80, 81, 82, 83, 84, 85, 86, 87, 88, 89, 90, 91, 92, 93, 94, 95, 96, 97, 98, 99, 100, 101, 102, 103, 104, 105, 106, 107, 108, 109, 110, 111, 112, 113, 114, 115, 116, 117, 118, 119, 120, 121, 122, 123, 124, 125, 126, 127, 128, 129, 130, 131, 132, 133, 134, 135, 136, 137, 138, 139, 140, 141, 142, 143, 144, 145, 146, 147, 148, 149, 150, 151, 152, 153, 154, 155, 156, 157, 158, 159, 160, 161, 162, 163, 164, 165, 166, 167, 168, 169, 170, 171, 172, 173, 174, 175, 176, 177, 178, 179, 180, 181, 182, 183, 184, 185, 186, 187, 188, 189, 190, 191, 192, 193, 194, 195, 196, 197, 198, 199, 200, 201, 202, 203, 204, 205, 206, 207, 208, 209, 210, 211, 212, 213, 214, 215, 216, 217, 218, 219, 220, 221, 222, 223, 224, 225, 226, 227, 228, 229, 230, 231, 232, 233, 234, 235, 236, 237, 238, 239, 240, 241, 242, 243, 244, 245, 246, 247, 248, 249, 250, 251, 252, 253, 254, 255, 256, 257, 258, 259, 260, 261, 262, 263, 264, 265, 266, 267, 268, 269, 270, 271, 272, 273, 274, 275, 276, 277, 278, 279, 280, 281, 282, 283, 284, 285, 286, 287, 288, 289, 290, 291, 292, 293, 294, 295, 296, 297, 298, 299, 300, 301, 302, 303, 304, 305, 306, 307, 308, 309, 310, 311, 312, 313, 314, 315, 316, 317, 318, 319, 320, 321, 322, 323, 324, 325, 326, 327, 328, 329, 330, 331, 332, 333, 334, 335, 336, 337, 338, 339, 340, 341, 342, 343, 344, 345, 346, 347, 348, 349, 350, 351, 352, 353, 354, 355, 356, 357, 358, 359, 360, 361, 362, 363, 364, 365, 366, 367, 368, 369, 370, 371, 372, 373, 374, 375, 376, 377, 378, 379, 380, 381, 382, 383, 384, 385, 386, 387, 388, 389, 390, 391, 392, 393, 394, 395, 396, 397, 398, 399, 400, 401, 402, 403, 404, 405, 406, 407, 408, 409, 410, 411, 412, 413, 414, 415, 416, 417, 418, 419, 420, 421, 422, 423, 424, 425, 426, 427, 428, 429, 430, 431, 432, 433, 434, 435, 436, 437, 438, 439, 440, 441, 442, 443, 444, 445, 446, 447, 448, 449, 450, 451, 452, 453, 454, 455, 456, 457, 458, 459, 460, 461, 462, 463, 464, 465, 466, 467, 468, 469, 470, 471, 472, 473, 474, 475, 476, 477, 478, 479, 480, 481, 482, 483, 484, 485, 486, 487, 488, 489, 490, 491, 492, 493, 494, 495, 496, 497, 498, 499, 500, 501, 502, 503, 504, 505, 506, 507, 508, 509, 510, 511, 512, 513, 514, 515, 516, 517, 518, 519, 520, 521, 522, 523, 524, 525, 526, 527, 528, 529, 530, 531, 532, 533, 534, 535, 536, 537, 538, 539, 540, 541, 542, 543, 544, 545, 546, 547, 548, 549, 550, 551, 552, 553, 554, 555, 556, 557, 558, 559, 560, 561, 562, 563, 564, 565, 566, 567, 568, 569, 570, 571, 572, 573, 574, 575, 576, 577, 578, 579, 580, 581, 582, 583, 584, 585, 586, 587, 588, 589, 590, 591, 592, 593, 594, 595, 596, 597, 598, 599, 600, 601, 602, 603, 604, 605, 606, 607, 608, 609, 610, 611, 612, 613, 614, 615, 616, 617, 618, 619, 620, 621, 622, 623, 624, 625, 626, 627, 628, 629, 630, 631, 632, 633, 634, 635, 636, 637, 638, 639, 640, 641, 642, 643, 644, 645, 646, 647, 648, 649, 650, 651, 652, 653, 654, 655, 656, 657, 658, 659, 660, 661, 662, 663, 664, 665, 666, 667, 668, 669, 670, 671, 672, 673, 674, 675, 676, 677, 678, 679, 680, 681, 682, 683, 684, 685, 686, 687, 688, 689, 690, 691, 692, 693, 694, 695, 696, 697, 698, 699, 700, 701, 702, 703, 704, 705, 706, 707, 708, 709, 710, 711, 712, 713, 714, 715, 716, 717, 718, 719, 720, 721, 722, 723, 724, 725, 726, 727, 728, 729, 730, 731, 732, 733, 734, 735, 736, 737, 738, 739, 740, 741, 742, 743, 744, 745, 746, 747, 748, 749, 750, 751, 752, 753, 754, 755, 756, 757, 758, 759, 760, 761, 762, 763, 764, 765, 766, 767, 768, 769, 770, 771, 772, 773, 774, 775, 776, 777, 778, 779, 780, 781, 782, 783, 784, 785, 786, 787, 788, 789, 790, 791, 792, 793, 794, 795, 796, 797, 798, 799, 800, 801, 802, 803, 804, 805, 806, 807, 808, 809, 810, 811, 812, 813, 814, 815, 816, 817, 818, 819, 820, 821, 822, 823, 824, 825, 826, 827, 828, 829, 830, 831, 832, 833, 834, 835, 836, 837, 838, 839, 840, 841, 842, 843, 844, 845, 846, 847, 848, 849, 850, 851, 852, 853, 854, 855, 856, 857, 858, 859, 860, 861, 862, 863, 864, 865, 866, 867, 868, 869, 870, 871, 872, 873, 874, 875, 876, 877, 878, 879, 880, 881, 882, 883, 884, 885, 886, 887, 888, 889, 890, 891, 892, 893, 894, 895, 896, 897, 898, 899, 900, 901, 902, 903, 904, 905, 906, 907, 908, 909, 910, 911, 912, 913, 914, 915, 916, 917, 918, 919, 920, 921, 922, 923, 924, 925, 926, 927, 928, 929, 930, 931, 932, 933, 934, 935, 936, 937, 938, 939, 940, 941, 942, 943, 944, 945, 946, 947, 948, 949, 950, 951, 952, 953, 954, 955, 956, 957, 958, 959, 960, 961, 962, 963, 964, 965, 966, 967, 968, 969, 970, 971, 972, 973, 974, 975, 976, 977, 978, 979, 980, 981, 982, 983, 984, 985, 986, 987, 988, 989, 990, 991, 992, 993, 994, 995, 996, 997, 998, 999, 1000, 1001, 1002, 1003, 1004, 1005, 1006, 1007, 1008, 1009, 1010, 1011, 1012, 1013, 1014, 1015, 1016, 1017, 1018, 1019, 1020, 1021, 1022, 1023, 1024, 1025, 1026, 1027, 1028, 1029, 1030, 1031, 1032, 1033, 1034, 1035, 1036, 1037, 1038, 1039, 1040, 1041, 1042, 1043, 1044, 1045, 1046, 1047, 1048, 1049, 1050, 1051, 1052, 1053, 1054, 1055, 1056, 1057, 1058, 1059, 1060, 1061, 1062, 1063, 1064, 1065, 1066, 1067, 1068, 1069, 1070, 1071, 1072, 1073, 1074, 1075, 1076, 1077, 1078, 1079, 1080, 1081, 1082, 1083, 1084, 1085, 1086, 1087, 1088, 1089, 1090, 1091, 1092, 1093, 1094, 1095, 1096, 1097, 1098, 1099, 1100, 1101, 1102, 1103, 1104, 1105, 1106, 1107, 1108, 1109, 1110, 1111, 1112, 1113, 1114, 1115, 1116, 1117, 1118, 1119, 1120, 1121, 1122, 1123, 1124, 1125, 1126, 1127, 1128, 1129, 1130, 1131, 1132, 1133, 1134, 1135, 1136, 1137, 1138, 1139, 1140, 1141, 1142, 1143, 1144, 1145, 1146, 1147, 1148, 1149, 1150, 1151, 1152, 1153, 1154, 1155, 1156, 1157, 1158, 1159, 1160, 1161, 1162, 1163, 1164, 1165, 1166, 1167, 1168, 1169, 1170, 1171, 1172, 1173, 1174, 1175, 1176, 1177, 1178, 1179, 1180, 1181, 1182, 1183, 1184, 1185, 1186, 1187, 1188, 1189, 1190, 1191, 1192, 1193, 1194, 1195, 1196, 1197, 1198, 1199, 1200, 1201, 1202, 1203, 1204, 1205, 1206, 1207, 1208, 1209, 1210, 1211, 1212, 1213, 1214, 1215, 1216, 1217, 1218, 1219, 1220, 1221, 1222, 1223, 1224, 1225, 1226, 1227, 1228, 1229, 1230, 1231, 1232, 1233, 1234, 1235, 1236, 1237, 1238, 1239, 1240, 1241, 1242, 1243, 1244, 1245, 1246, 1247, 1248, 1249, 1250, 1251, 1252, 1253, 1254, 1255, 1256, 1257, 1258, 1259, 1260, 1261, 1262, 1263, 1264, 1265, 1266, 1267, 1268, 1269, 1270, 1271, 1272, 1273, 1274, 1275, 1276, 1277, 1278, 1279, 1280, 1281, 1282, 1283, 1284, 1285, 1286, 1287, 1288, 1289, 1290, 1291, 1292, 1293, 1294, 1295, 1296, 1297, 1298, 1299, 1300, 1301, 1302, 1303, 1304, 1305, 1306, 1307, 1308, 1309, 1310, 1311, 1312, 1313, 1314, 1315, 1316, 1317, 1318, 1319, 1320, 1321, 1322, 1323, 1324, 1325, 1326, 1327, 1328, 1329, 1330, 1331, 1332, 1333, 1334, 1335, 1336, 1337, 1338, 1339, 1340, 1341, 1342, 1343, 1344, 1345, 1346, 1347, 1348, 1349, 1350, 1351, 1352, 1353, 1354, 1355, 1356, 1357, 1358, 1359, 1360, 1361, 1362, 1363, 1364, 1365, 1366, 1367, 1368, 1369, 1370, 1371, 1372, 1373, 1374, 1375, 1376, 1377, 1378, 1379, 1380, 1381, 1382, 1383, 1384, 1385, 1386, 1387, 1388, 1389, 1390, 1391, 1392, 1393, 1394, 1395, 1396, 1397, 1398, 1399, 1400, 1401, 1402, 1403, 1404, 1405, 1406, 1407, 1408, 1409, 1410, 1411, 1412, 1413, 1414, 1415, 1416, 1417, 1418, 1419, 1420, 1421, 1422, 1423, 1424, 1425, 1426, 1427, 1428, 1429, 1430, 1431, 1432, 1433, 1434, 1435, 1436, 1437, 1438, 1439, 1440, 1441, 1442, 1443, 1444, 1445, 1446, 1447, 1448, 1449, 1450, 1451, 1452, 1453, 1454, 1455, 1456, 1457, 1458, 1459, 1460, 1461, 1462, 1463, 1464, 1465, 1466, 1467, 1468, 1469, 1470, 1471, 1472, 1473, 1474, 1475, 1476, 1477, 1478, 1479, 1480, 1481, 1482, 1483, 1484, 1485, 1486, 1487, 1488, 1489, 1490, 1491, 1492, 1493, 1494, 1495, 1496, 1497, 1498, 1499, 1500, 1501, 1502, 1503, 1504, 1505, 1506, 1507, 1508, 1509, 1510, 1511, 1512, 1513, 1514, 1515, 1516, 1517, 1518, 1519, 1520, 1521, 1522, 1523, 1524, 1525, 1526, 1527, 1528, 1529, 1530, 1531, 1532, 1533, 1534, 1535, 1536, 1537, 1538, 1539, 1540, 1541, 1542, 1543, 1544, 1545, 1546, 1547, 1548, 1549, 1550, 1551, 1552, 1553, 1554, 1555, 1556, 1557, 1558, 1559, 1560, 1561, 1562, 1563, 1564, 1565, 1566, 1567, 1568, 1569, 1570, 1571, 1572, 1573, 1574, 1575, 1576, 1577, 1578, 1579, 1580, 1581, 1582, 1583, 1584, 1585, 1586, 1587, 1588, 1589, 1590, 1591, 1592, 1593, 1594, 1595, 1596, 1597, 1598, 1599, 1600, 1601, 1602, 1603, 1604, 1605, 1606, 1607, 1608, 1609, 1610, 1611, 1612, 1613, 1614, 1615, 1616, 1617, 1618, 1619, 1620, 1621, 1622, 1623, 1624, 1625, 1626, 1627, 1628, 1629, 1630, 1631, 1632, 1633, 1634, 1635, 1636, 1637, 1638, 1639, 1640, 1641, 1642, 1643, 1644, 1645, 1646, 1647, 1648, 1649, 1650, 1651, 1652, 1653, 1654, 1655, 1656, 1657, 1658, 1659, 1660, 1661, 1662, 1663, 1664, 1665, 1666, 1667, 1668, 1669, 1670, 1671, 1672, 1673, 1674, 1675, 1676, 1677],
      "AcquisitionTime": ["170444.727500", "170445.730000", "170446.735000", "170447.740000", "170448.742500", "170449.747500", "170450.752500", "170451.755000", "170452.760000", "170453.762500", "170454.767500", "170455.772500", "170456.775000", "170457.780000", "170458.782500", "170459.787500", "170500.792500", "170501.795000", "170502.800000", "170503.802500", "170504.807500", "170505.812500", "170506.815000", "170507.820000", "170508.822500", "170509.827500", "170510.832500", "170511.835000", "170512.840000", "170513.842500", "170514.847500", "170515.852500", "170516.855000", "170517.860000", "170518.865000", "170519.867500", "170520.872500", "170521.875000", "170522.880000", "170523.885000", "170524.887500", "170525.892500", "170526.895000", "170527.900000", "170528.905000", "170529.907500", "170530.912500", "170531.915000", "170532.920000", "170533.925000", "170534.927500", "170535.932500", "170536.935000", "170537.940000", "170538.945000", "170539.947500", "170540.952500", "170541.955000", "170542.960000", "170543.965000", "170544.967500", "170545.972500", "170546.975000", "170547.980000", "170548.985000", "170549.987500", "170550.992500", "170551.997500", "170553.000000", "170554.005000", "170555.007500", "170556.012500", "170557.017500", "170558.020000", "170559.025000", "170600.027500", "170601.032500", "170602.037500", "170603.040000", "170604.045000", "170605.047500", "170606.052500", "170607.057500", "170608.060000", "170609.065000", "170610.067500", "170611.072500", "170612.077500", "170613.080000", "170614.085000", "170615.087500", "170616.092500", "170617.097500", "170618.100000", "170619.105000", "170620.107500", "170621.112500", "170622.117500", "170623.120000", "170624.125000", "170625.130000", "170626.132500", "170627.137500", "170628.140000", "170629.145000", "170630.150000", "170631.152500", "170632.157500", "170633.160000", "170634.165000", "170635.170000", "170636.172500", "170637.177500", "170638.180000", "170639.185000", "170640.190000", "170641.192500", "170642.197500", "170643.200000", "170644.205000", "170645.210000", "170646.212500", "170647.217500", "170648.220000", "170649.225000", "170650.230000", "170651.232500", "170652.237500", "170653.242500", "170654.245000", "170655.250000", "170656.252500", "170657.257500", "170658.262500", "170659.265000", "170700.270000", "170701.272500", "170702.277500", "170703.282500", "170704.285000", "170705.290000", "170706.292500", "170707.297500", "170708.302500", "170709.305000", "170710.310000", "170711.312500", "170712.317500", "170713.322500", "170714.325000", "170715.330000", "170716.332500", "170717.337500", "170718.342500", "170719.345000", "170720.350000", "170721.352500", "170722.357500", "170723.362500", "170724.365000", "170725.370000", "170726.375000", "170727.377500", "170728.382500", "170729.385000", "170730.390000", "170731.395000", "170732.397500", "170733.402500", "170734.405000", "170735.410000", "170736.415000", "170737.417500", "170738.422500", "170739.425000", "170740.430000", "170741.435000", "170742.437500", "170743.442500", "170744.445000", "170745.450000", "170746.455000", "170747.457500", "170748.462500", "170749.465000", "170750.470000", "170751.475000", "170752.477500", "170753.482500", "170754.487500", "170755.490000", "170756.495000", "170757.497500", "170758.502500", "170759.507500", "170800.510000", "170801.515000", "170802.517500", "170803.522500", "170804.527500", "170805.530000", "170806.535000", "170807.537500", "170808.542500", "170809.547500", "170810.550000", "170811.555000", "170812.557500", "170813.562500", "170814.567500", "170815.570000", "170816.575000", "170817.577500", "170818.582500", "170819.587500", "170820.590000", "170821.595000", "170822.597500", "170823.602500", "170824.607500", "170825.610000", "170826.615000", "170827.620000", "170828.622500", "170829.627500", "170830.630000", "170831.635000", "170832.640000", "170833.642500", "170834.647500", "170835.650000", "170836.655000", "170837.660000", "170838.662500", "170839.667500", "170840.670000", "170841.675000", "170842.680000", "170843.682500", "170844.687500", "170845.690000", "170846.695000", "170847.700000", "170848.702500", "170849.707500", "170850.710000", "170851.715000", "170852.720000", "170853.722500", "170854.727500", "170855.730000", "170856.735000", "170857.740000", "170858.742500", "170859.747500", "170900.752500", "170901.755000", "170902.760000", "170903.762500", "170904.767500", "170905.772500", "170906.775000", "170907.780000", "170908.782500", "170909.787500", "170910.792500", "170911.795000", "170912.800000", "170913.802500", "170914.807500", "170915.812500", "170916.815000", "170917.820000", "170918.822500", "170919.827500", "170920.832500", "170921.835000", "170922.840000", "170923.842500", "170924.847500", "170925.852500", "170926.855000", "170927.860000", "170928.865000", "170929.867500", "170930.872500", "170931.875000", "170932.880000", "170933.885000", "170934.887500", "170935.892500", "170936.895000", "170937.900000", "170938.905000", "170939.907500", "170940.912500", "170941.915000", "170942.920000", "170943.925000", "170944.927500", "170945.932500", "170946.935000", "170947.940000", "170948.945000", "170949.947500", "170950.952500", "170951.955000", "170952.960000", "170953.965000", "170954.967500", "170955.972500", "170956.975000", "170957.980000", "170958.985000", "170959.987500", "171000.992500", "171001.997500", "171003.000000", "171004.005000", "171005.007500", "171006.012500", "171007.017500", "171008.020000", "171009.025000", "171010.027500", "171011.032500", "171012.037500", "171013.040000", "171014.045000", "171015.047500", "171016.052500", "171017.057500", "171018.060000", "171019.065000", "171020.067500", "171021.072500", "171022.077500", "171023.080000", "171024.085000", "171025.087500", "171026.092500", "171027.097500", "171028.100000", "171029.105000", "171030.107500", "171031.112500", "171032.117500", "171033.120000", "171034.125000", "171035.130000", "171036.132500", "171037.137500", "171038.140000", "171039.145000", "171040.150000", "171041.152500", "171042.157500", "171043.160000", "171044.165000", "171045.170000", "171046.172500", "171047.177500", "171048.180000", "171049.185000", "171050.190000", "171051.192500", "171052.197500", "171053.200000", "171054.205000", "171055.210000", "171056.212500", "171057.217500", "171058.220000", "171059.225000", "171100.230000", "171101.232500", "171102.237500", "171103.242500", "171104.245000", "171105.250000", "171106.252500", "171107.257500", "171108.262500", "171109.265000", "171110.270000", "171111.272500", "171112.277500", "171113.282500", "171114.285000", "171115.290000", "171116.292500", "171117.297500", "171118.302500", "171119.305000", "171120.310000", "171121.312500", "171122.317500", "171123.322500", "171124.325000", "171125.330000", "171126.332500", "171127.337500", "171128.342500", "171129.345000", "171130.350000", "171131.352500", "171132.357500", "171133.362500", "171134.365000", "171135.370000", "171136.375000", "171137.377500", "171138.382500", "171139.385000", "171140.390000", "171141.395000", "171142.397500", "171143.402500", "171144.405000", "171145.410000", "171146.415000", "171147.417500", "171148.422500", "171149.425000", "171150.430000", "171151.435000", "171152.437500", "171153.442500", "171154.445000", "171155.450000", "171156.455000", "171157.457500", "171158.462500", "171159.465000", "171200.470000", "171201.475000", "171202.477500", "171203.482500", "171204.487500", "171205.490000", "171206.495000", "171207.497500", "171208.502500", "171209.507500", "171210.510000", "171211.515000", "171212.517500", "171213.522500", "171214.527500", "171215.530000", "171216.535000", "171217.537500", "171218.542500", "171219.547500", "171220.550000", "171221.555000", "171222.557500", "171223.562500", "171224.567500", "171225.570000", "171226.575000", "171227.577500", "171228.582500", "171229.587500", "171230.590000", "171231.595000", "171232.597500", "171233.602500", "171234.607500", "171235.610000", "171236.615000", "171237.620000", "171238.622500", "171239.627500", "171240.630000", "171241.635000", "171242.640000", "171243.642500", "171244.647500", "171245.650000", "171246.655000", "171247.660000", "171248.662500", "171249.667500", "171250.670000", "171251.675000", "171252.680000", "171253.682500", "171254.687500", "171255.690000", "171256.695000", "171257.700000", "171258.702500", "171259.707500", "171300.710000", "171301.715000", "171302.720000", "171303.722500", "171304.727500", "171305.730000", "171306.735000", "171307.740000", "171308.742500", "171309.747500", "171310.752500", "171311.755000", "171312.760000", "171313.762500", "171314.767500", "171315.772500", "171316.775000", "171317.780000", "171318.782500", "171319.787500", "171320.792500", "171321.795000", "171322.800000", "171323.802500", "171324.807500", "171325.812500", "171326.815000", "171327.820000", "171328.822500", "171329.827500", "171330.832500", "171331.835000", "171332.840000", "171333.842500", "171334.847500", "171335.852500", "171336.855000", "171337.860000", "171338.865000", "171339.867500", "171340.872500", "171341.875000", "171342.880000", "171343.885000", "171344.887500", "171345.892500", "171346.895000", "171347.900000", "171348.905000", "171349.907500", "171350.912500", "171351.915000", "171352.920000", "171353.925000", "171354.927500", "171355.932500", "171356.935000", "171357.940000", "171358.945000", "171359.947500", "171400.952500", "171401.955000", "171402.960000", "171403.965000", "171404.967500", "171405.972500", "171406.975000", "171407.980000", "171408.985000", "171409.987500", "171410.992500", "171411.997500", "171413.000000", "171414.005000", "171415.007500", "171416.012500", "171417.017500", "171418.020000", "171419.025000", "171420.027500", "171421.032500", "171422.037500", "171423.040000", "171424.045000", "171425.047500", "171426.052500", "171427.057500", "171428.060000", "171429.065000", "171430.067500", "171431.072500", "171432.077500", "171433.080000", "171434.085000", "171435.087500", "171436.092500", "171437.097500", "171438.100000", "171439.105000", "171440.107500", "171441.112500", "171442.117500", "171443.120000", "171444.125000", "171445.130000", "171446.132500", "171447.137500", "171448.140000", "171449.145000", "171450.150000", "171451.152500", "171452.157500", "171453.160000", "171454.165000", "171455.170000", "171456.172500", "171457.177500", "171458.180000", "171459.185000", "171500.190000", "171501.192500", "171502.197500", "171503.200000", "171504.205000", "171505.210000", "171506.212500", "171507.217500", "171508.220000", "171509.225000", "171510.230000", "171511.232500", "171512.237500", "171513.242500", "171514.245000", "171515.250000", "171516.252500", "171517.257500", "171518.262500", "171519.265000", "171520.270000", "171521.272500", "171522.277500", "171523.282500", "171524.285000", "171525.290000", "171526.292500", "171527.297500", "171528.302500", "171529.305000", "171530.310000", "171531.312500", "171532.317500", "171533.322500", "171534.325000", "171535.330000", "171536.332500", "171537.337500", "171538.342500", "171539.345000", "171540.350000", "171541.352500", "171542.357500", "171543.362500", "171544.365000", "171545.370000", "171546.375000", "171547.377500", "171548.382500", "171549.385000", "171550.390000", "171551.395000", "171552.397500", "171553.402500", "171554.405000", "171555.410000", "171556.415000", "171557.417500", "171558.422500", "171559.425000", "171600.430000", "171601.435000", "171602.437500", "171603.442500", "171604.445000", "171605.450000", "171606.455000", "171607.457500", "171608.462500", "171609.465000", "171610.470000", "171611.475000", "171612.477500", "171613.482500", "171614.487500", "171615.490000", "171616.495000", "171617.497500", "171618.502500", "171619.507500", "171620.510000", "171621.515000", "171622.517500", "171623.522500", "171624.527500", "171625.530000", "171626.535000", "171627.537500", "171628.542500", "171629.547500", "171630.550000", "171631.555000", "171632.557500", "171633.562500", "171634.567500", "171635.570000", "171636.575000", "171637.577500", "171638.582500", "171639.587500", "171640.590000", "171641.595000", "171642.597500", "171643.602500", "171644.607500", "171645.610000", "171646.615000", "171647.620000", "171648.622500", "171649.627500", "171650.630000", "171651.635000", "171652.640000", "171653.642500", "171654.647500", "171655.650000", "171656.655000", "171657.660000", "171658.662500", "171659.667500", "171700.670000", "171701.675000", "171702.680000", "171703.682500", "171704.687500", "171705.690000", "171706.695000", "171707.700000", "171708.702500", "171709.707500", "171710.710000", "171711.715000", "171712.720000", "171713.722500", "171714.727500", "171715.730000", "171716.735000", "171717.740000", "171718.742500", "171719.747500", "171720.752500", "171721.755000", "171722.760000", "171723.762500", "171724.767500", "171725.772500", "171726.775000", "171727.780000", "171728.782500", "171729.787500", "171730.792500", "171731.795000", "171732.800000", "171733.802500", "171734.807500", "171735.812500", "171736.815000", "171737.820000", "171738.822500", "171739.827500", "171740.832500", "171741.835000", "171742.840000", "171743.842500", "171744.847500", "171745.852500", "171746.855000", "171747.860000", "171748.865000", "171749.867500", "171750.872500", "171751.875000", "171752.880000", "171753.885000", "171754.887500", "171755.892500", "171756.895000", "171757.900000", "171758.905000", "171759.907500", "171800.912500", "171801.915000", "171802.920000", "171803.925000", "171804.927500", "171805.932500", "171806.935000", "171807.940000", "171808.945000", "171809.947500", "171810.952500", "171811.955000", "171812.960000", "171813.965000", "171814.967500", "171815.972500", "171816.975000", "171817.980000", "171818.985000", "171819.987500", "171820.992500", "171821.997500", "171823.000000", "171824.005000", "171825.007500", "171826.012500", "171827.017500", "171828.020000", "171829.025000", "171830.027500", "171831.032500", "171832.037500", "171833.040000", "171834.045000", "171835.047500", "171836.052500", "171837.057500", "171838.060000", "171839.065000", "171840.067500", "171841.072500", "171842.077500", "171843.080000", "171844.085000", "171845.087500", "171846.092500", "171847.097500", "171848.100000", "171849.105000", "171850.107500", "171851.112500", "171852.117500", "171853.120000", "171854.125000", "171855.130000", "171856.132500", "171857.137500", "171858.140000", "171859.145000", "171900.150000", "171901.152500", "171902.157500", "171903.160000", "171904.165000", "171905.170000", "171906.172500", "171907.177500", "171908.180000", "171909.185000", "171910.190000", "171911.192500", "171912.197500", "171913.200000", "171914.205000", "171915.210000", "171916.212500", "171917.217500", "171918.220000", "171919.225000", "171920.230000", "171921.232500", "171922.237500", "171923.242500", "171924.245000", "171925.250000", "171926.252500", "171927.257500", "171928.262500", "171929.265000", "171930.270000", "171931.272500", "171932.277500", "171933.282500", "171934.285000", "171935.290000", "171936.292500", "171937.297500", "171938.302500", "171939.305000", "171940.310000", "171941.312500", "171942.317500", "171943.322500", "171944.325000", "171945.330000", "171946.332500", "171947.337500", "171948.342500", "171949.345000", "171950.350000", "171951.352500", "171952.357500", "171953.362500", "171954.365000", "171955.370000", "171956.375000", "171957.377500", "171958.382500", "171959.385000", "172000.390000", "172001.395000", "172002.397500", "172003.402500", "172004.405000", "172005.410000", "172006.415000", "172007.417500", "172008.422500", "172009.425000", "172010.430000", "172011.435000", "172012.437500", "172013.442500", "172014.445000", "172015.450000", "172016.455000", "172017.457500", "172018.462500", "172019.465000", "172020.470000", "172021.475000", "172022.477500", "172023.482500", "172024.487500", "172025.490000", "172026.495000", "172027.497500", "172028.502500", "172029.507500", "172030.510000", "172031.515000", "172032.517500", "172033.522500", "172034.527500", "172035.530000", "172036.