{
  "AcquisitionMatrixPE": 64,
  "AcquisitionNumber": 1,
  "AcquisitionTime": "19:51:20.840000",
  "BandwidthPerPixelPhaseEncode": 19.531,
  "BaseResolution": 64,
  "CoilString": "C:HEA;HEP",
  "ConversionSoftware": "dcm2niix",
  "ConversionSoftwareVersion": "v1.0.20190902",
  "DerivedVendorReportedEchoSpacing": 0.00080001,
  "DeviceSerialNumber": "26099",
  "DwellTime": 5.3e-06,
  "EchoTime": 0.0548,
  "EffectiveEchoSpacing": 0.00080001,
  "FlipAngle": 75,
  "ImageComments": "Unaliased_MB4_PE3_LB_SENSE1",
  "ImageOrientationPatientDICOM": [1, 2e-16, 0, -2e-16, 0.973579, -0.228351],
  "ImageType": [
    "ORIGINAL",
    "PRIMARY",
    "M",
    "MB",
    "ND",
    "MOSAIC"
],
  "ImagingFrequency": 63.6805,
  "InPlanePhaseEncodingDirectionDICOM": "COL",
  "InstitutionAddress": "Bedford_Way_26_London_London_GB_WC1H_0AP",
  "InstitutionName": "University_College",
  "InstitutionalDepartmentName": "Department",
  "MRAcquisitionType": "2D",
  "MagneticFieldStrength": 1.5,
  "Manufacturer": "Siemens",
  "ManufacturersModelName": "Avanto",
  "Modality": "MR",
  "MultibandAccelerationFactor": 4,
  "PartialFourier": 1,
  "PatientPosition": "HFS",
  "PercentPhaseFOV": 100,
  "PhaseEncodingDirection": "j-",
  "PhaseEncodingSteps": 64,
  "PhaseResolution": 1,
  "PixelBandwidth": 1474,
  "ProcedureStepDescription": "ucl_bbk_Jeremy",
  "ProtocolName": "EcL4-3.2m-40-1474-1s-55e",
  "PulseSequenceDetails": "%CustomerSeq%_cmrr_mbep2d_bold",
  "ReceiveCoilName": "32Ch_Head",
  "ReconMatrixPE": 64,
  "RepetitionTime": 1,
  "SAR": 0.0469491,
  "ScanOptions": "FS",
  "ScanningSequence": "EP",
  "SequenceName": "epfid2d1_64",
  "SequenceVariant": "SK_SS",
  "SeriesDescription": "EcL4-3.2m-40-1474-1s-55e",
  "SeriesNumber": 7,
  "ShimSetting": [103, -35, 331, 680, -176, -35, -547, 154],
  "SliceThickness": 3.2,
  "SliceTiming": [0, 0.7025, 0.4, 0.1, 0.8025, 0.5, 0.2, 0.9025, 0.6025, 0.3, 0, 0.7025, 0.4, 0.1, 0.8025, 0.5, 0.2, 0.9025, 0.6025, 0.3, 0, 0.7025, 0.4, 0.1, 0.8025, 0.5, 0.2, 0.9025, 0.6025, 0.3, 0, 0.7025, 0.4, 0.1, 0.8025, 0.5, 0.2, 0.9025, 0.6025, 0.3],
  "SoftwareVersions": "syngo_MR_B17",
  "SpacingBetweenSlices": 3.2,
  "StationName": "MRC26099",
  "TaskName": "citizenfour",
  "TotalReadoutTime": 0.0504006,
  "TxRefAmp": 218.433,
  "dcmmeta_affine": [
    [-3.203125, -6.40624994052057e-16, 1.4614456332508462e-16, 102.5],
    [-6.40624994052057e-16, 3.118494987487793, -0.7307227849960327, -78.79228973388672],
    [0.0, 0.7314364314079285, 3.115452289581299, -73.20793151855469],
    [0.0, 0.0, 0.0, 1.0]
],
  "dcmmeta_reorient_transform": [
    [0.0, -1.0, 0.0, 63.0],
    [1.0, 0.0, 0.0, 0.0],
    [0.0, 0.0, 1.0, 0.0],
    [0.0, 0.0, 0.0, 1.0]
],
  "dcmmeta_shape": [64, 64, 40, 1125],
  "dcmmeta_slice_dim": 2,
  "dcmmeta_version": 0.6,
  "global": {
    "const": {
      "AcquisitionMatrix": [64, 0, 0, 64],
      "AngioFlag": "N",
      "BitsAllocated": 16,
      "BitsStored": 12,
      "Columns": 448,
      "EchoNumbers": 1,
      "EchoTime": 54.8,
      "EchoTrainLength": 1,
      "FlipAngle": 75.0,
      "HighBit": 11,
      "ImageOrientationPatient": [1.0, 2e-16, 0.0, -2e-16, 0.97357889963852, -0.2283508839016],
      "ImagePositionPatient": [-717.5, -716.42391632255, 113.30835389546],
      "ImageType": [
        "ORIGINAL",
        "PRIMARY",
        "M",
        "MB",
        "ND",
        "MOSAIC"
],
      "ImagedNucleus": "1H",
      "ImagingFrequency": 63.680545,
      "InPlanePhaseEncodingDirection": "COL",
      "MRAcquisitionType": "2D",
      "MagneticFieldStrength": 1.5,
      "Manufacturer": "SIEMENS",
      "ManufacturerModelName": "Avanto",
      "Modality": "MR",
      "NumberOfAverages": 1.0,
      "NumberOfPhaseEncodingSteps": 64,
      "PercentPhaseFieldOfView": 100.0,
      "PercentSampling": 100.0,
      "PerformedProcedureStepStartTime": "180830.578000",
      "PhotometricInterpretation": "MONOCHROME2",
      "PixelBandwidth": 1474.0,
      "PixelRepresentation": 0,
      "PixelSpacing": [3.203125, 3.203125],
      "ProtocolName": "EcL4-3.2m-40-1474-1s-55e",
      "RepetitionTime": 1000.0,
      "Rows": 448,
      "SAR": 0.04694914698559,
      "SamplesPerPixel": 1,
      "ScanOptions": "FS",
      "ScanningSequence": "EP",
      "SequenceName": "epfid2d1_64",
      "SequenceVariant": [
        "SK",
        "SS"
],
      "SeriesDescription": "EcL4-3.2m-40-1474-1s-55e",
      "SeriesNumber": 7,
      "SeriesTime": "195202.125000",
      "SliceLocation": -53.281412035123,
      "SliceThickness": 3.2000000476837,
      "SmallestImagePixelValue": 0,
      "SoftwareVersions": "syngo MR B17",
      "SpacingBetweenSlices": 3.1999999150337,
      "SpecificCharacterSet": "ISO_IR 100",
      "StudyID": "1",
      "StudyTime": "180830.531000",
      "TransmitCoilName": "Body",
      "VariableFlipAngleFlag": "N",
      "WindowCenterWidthExplanation": "Algo1",
      "dBdt": 0.0},
    "slices": {}
  },
  "time": {
    "samples": {
      "AcquisitionNumber": [1, 2, 3, 4, 5, 6, 7, 8, 9, 10, 11, 12, 13, 14, 15, 16, 17, 18, 19, 20, 21, 22, 23, 24, 25, 26, 27, 28, 29, 30, 31, 32, 33, 34, 35, 36, 37, 38, 39, 40, 41, 42, 43, 44, 45, 46, 47, 48, 49, 50, 51, 52, 53, 54, 55, 56, 57, 58, 59, 60, 61, 62, 63, 64, 65, 66, 67, 68, 69, 70, 71, 72, 73, 74, 75, 76, 77, 78, 79, 80, 81, 82, 83, 84, 85, 86, 87, 88, 89, 90, 91, 92, 93, 94, 95, 96, 97, 98, 99, 100, 101, 102, 103, 104, 105, 106, 107, 108, 109, 110, 111, 112, 113, 114, 115, 116, 117, 118, 119, 120, 121, 122, 123, 124, 125, 126, 127, 128, 129, 130, 131, 132, 133, 134, 135, 136, 137, 138, 139, 140, 141, 142, 143, 144, 145, 146, 147, 148, 149, 150, 151, 152, 153, 154, 155, 156, 157, 158, 159, 160, 161, 162, 163, 164, 165, 166, 167, 168, 169, 170, 171, 172, 173, 174, 175, 176, 177, 178, 179, 180, 181, 182, 183, 184, 185, 186, 187, 188, 189, 190, 191, 192, 193, 194, 195, 196, 197, 198, 199, 200, 201, 202, 203, 204, 205, 206, 207, 208, 209, 210, 211, 212, 213, 214, 215, 216, 217, 218, 219, 220, 221, 222, 223, 224, 225, 226, 227, 228, 229, 230, 231, 232, 233, 234, 235, 236, 237, 238, 239, 240, 241, 242, 243, 244, 245, 246, 247, 248, 249, 250, 251, 252, 253, 254, 255, 256, 257, 258, 259, 260, 261, 262, 263, 264, 265, 266, 267, 268, 269, 270, 271, 272, 273, 274, 275, 276, 277, 278, 279, 280, 281, 282, 283, 284, 285, 286, 287, 288, 289, 290, 291, 292, 293, 294, 295, 296, 297, 298, 299, 300, 301, 302, 303, 304, 305, 306, 307, 308, 309, 310, 311, 312, 313, 314, 315, 316, 317, 318, 319, 320, 321, 322, 323, 324, 325, 326, 327, 328, 329, 330, 331, 332, 333, 334, 335, 336, 337, 338, 339, 340, 341, 342, 343, 344, 345, 346, 347, 348, 349, 350, 351, 352, 353, 354, 355, 356, 357, 358, 359, 360, 361, 362, 363, 364, 365, 366, 367, 368, 369, 370, 371, 372, 373, 374, 375, 376, 377, 378, 379, 380, 381, 382, 383, 384, 385, 386, 387, 388, 389, 390, 391, 392, 393, 394, 395, 396, 397, 398, 399, 400, 401, 402, 403, 404, 405, 406, 407, 408, 409, 410, 411, 412, 413, 414, 415, 416, 417, 418, 419, 420, 421, 422, 423, 424, 425, 426, 427, 428, 429, 430, 431, 432, 433, 434, 435, 436, 437, 438, 439, 440, 441, 442, 443, 444, 445, 446, 447, 448, 449, 450, 451, 452, 453, 454, 455, 456, 457, 458, 459, 460, 461, 462, 463, 464, 465, 466, 467, 468, 469, 470, 471, 472, 473, 474, 475, 476, 477, 478, 479, 480, 481, 482, 483, 484, 485, 486, 487, 488, 489, 490, 491, 492, 493, 494, 495, 496, 497, 498, 499, 500, 501, 502, 503, 504, 505, 506, 507, 508, 509, 510, 511, 512, 513, 514, 515, 516, 517, 518, 519, 520, 521, 522, 523, 524, 525, 526, 527, 528, 529, 530, 531, 532, 533, 534, 535, 536, 537, 538, 539, 540, 541, 542, 543, 544, 545, 546, 547, 548, 549, 550, 551, 552, 553, 554, 555, 556, 557, 558, 559, 560, 561, 562, 563, 564, 565, 566, 567, 568, 569, 570, 571, 572, 573, 574, 575, 576, 577, 578, 579, 580, 581, 582, 583, 584, 585, 586, 587, 588, 589, 590, 591, 592, 593, 594, 595, 596, 597, 598, 599, 600, 601, 602, 603, 604, 605, 606, 607, 608, 609, 610, 611, 612, 613, 614, 615, 616, 617, 618, 619, 620, 621, 622, 623, 624, 625, 626, 627, 628, 629, 630, 631, 632, 633, 634, 635, 636, 637, 638, 639, 640, 641, 642, 643, 644, 645, 646, 647, 648, 649, 650, 651, 652, 653, 654, 655, 656, 657, 658, 659, 660, 661, 662, 663, 664, 665, 666, 667, 668, 669, 670, 671, 672, 673, 674, 675, 676, 677, 678, 679, 680, 681, 682, 683, 684, 685, 686, 687, 688, 689, 690, 691, 692, 693, 694, 695, 696, 697, 698, 699, 700, 701, 702, 703, 704, 705, 706, 707, 708, 709, 710, 711, 712, 713, 714, 715, 716, 717, 718, 719, 720, 721, 722, 723, 724, 725, 726, 727, 728, 729, 730, 731, 732, 733, 734, 735, 736, 737, 738, 739, 740, 741, 742, 743, 744, 745, 746, 747, 748, 749, 750, 751, 752, 753, 754, 755, 756, 757, 758, 759, 760, 761, 762, 763, 764, 765, 766, 767, 768, 769, 770, 771, 772, 773, 774, 775, 776, 777, 778, 779, 780, 781, 782, 783, 784, 785, 786, 787, 788, 789, 790, 791, 792, 793, 794, 795, 796, 797, 798, 799, 800, 801, 802, 803, 804, 805, 806, 807, 808, 809, 810, 811, 812, 813, 814, 815, 816, 817, 818, 819, 820, 821, 822, 823, 824, 825, 826, 827, 828, 829, 830, 831, 832, 833, 834, 835, 836, 837, 838, 839, 840, 841, 842, 843, 844, 845, 846, 847, 848, 849, 850, 851, 852, 853, 854, 855, 856, 857, 858, 859, 860, 861, 862, 863, 864, 865, 866, 867, 868, 869, 870, 871, 872, 873, 874, 875, 876, 877, 878, 879, 880, 881, 882, 883, 884, 885, 886, 887, 888, 889, 890, 891, 892, 893, 894, 895, 896, 897, 898, 899, 900, 901, 902, 903, 904, 905, 906, 907, 908, 909, 910, 911, 912, 913, 914, 915, 916, 917, 918, 919, 920, 921, 922, 923, 924, 925, 926, 927, 928, 929, 930, 931, 932, 933, 934, 935, 936, 937, 938, 939, 940, 941, 942, 943, 944, 945, 946, 947, 948, 949, 950, 951, 952, 953, 954, 955, 956, 957, 958, 959, 960, 961, 962, 963, 964, 965, 966, 967, 968, 969, 970, 971, 972, 973, 974, 975, 976, 977, 978, 979, 980, 981, 982, 983, 984, 985, 986, 987, 988, 989, 990, 991, 992, 993, 994, 995, 996, 997, 998, 999, 1000, 1001, 1002, 1003, 1004, 1005, 1006, 1007, 1008, 1009, 1010, 1011, 1012, 1013, 1014, 1015, 1016, 1017, 1018, 1019, 1020, 1021, 1022, 1023, 1024, 1025, 1026, 1027, 1028, 1029, 1030, 1031, 1032, 1033, 1034, 1035, 1036, 1037, 1038, 1039, 1040, 1041, 1042, 1043, 1044, 1045, 1046, 1047, 1048, 1049, 1050, 1051, 1052, 1053, 1054, 1055, 1056, 1057, 1058, 1059, 1060, 1061, 1062, 1063, 1064, 1065, 1066, 1067, 1068, 1069, 1070, 1071, 1072, 1073, 1074, 1075, 1076, 1077, 1078, 1079, 1080, 1081, 1082, 1083, 1084, 1085, 1086, 1087, 1088, 1089, 1090, 1091, 1092, 1093, 1094, 1095, 1096, 1097, 1098, 1099, 1100, 1101, 1102, 1103, 1104, 1105, 1106, 1107, 1108, 1109, 1110, 1111, 1112, 1113, 1114, 1115, 1116, 1117, 1118, 1119, 1120, 1121, 1122, 1123, 1124, 1125],
      "AcquisitionTime": ["195120.840000", "195121.842500", "195122.847500", "195123.852500", "195124.855000", "195125.860000", "195126.862500", "195127.867500", "195128.872500", "195129.875000", "195130.880000", "195131.882500", "195132.887500", "195133.892500", "195134.895000", "195135.900000", "195136.902500", "195137.907500", "195138.912500", "195139.915000", "195140.920000", "195141.922500", "195142.927500", "195143.932500", "195144.935000", "195145.940000", "195146.942500", "195147.947500", "195148.952500", "195149.955000", "195150.960000", "195151.965000", "195152.967500", "195153.972500", "195154.975000", "195155.980000", "195156.985000", "195157.987500", "195158.992500", "195159.995000", "195201.000000", "195202.005000", "195203.007500", "195204.012500", "195205.015000", "195206.020000", "195207.025000", "195208.027500", "195209.032500", "195210.035000", "195211.040000", "195212.045000", "195213.047500", "195214.052500", "195215.055000", "195216.060000", "195217.065000", "195218.067500", "195219.072500", "195220.077500", "195221.080000", "195222.085000", "195223.087500", "195224.092500", "195225.097500", "195226.100000", "195227.105000", "195228.107500", "195229.112500", "195230.117500", "195231.120000", "195232.125000", "195233.127500", "195234.132500", "195235.137500", "195236.140000", "195237.145000", "195238.147500", "195239.152500", "195240.157500", "195241.160000", "195242.165000", "195243.167500", "195244.172500", "195245.177500", "195246.180000", "195247.185000", "195248.187500", "195249.192500", "195250.197500", "195251.200000", "195252.205000", "195253.210000", "195254.212500", "195255.217500", "195256.220000", "195257.225000", "195258.230000", "195259.232500", "195300.237500", "195301.240000", "195302.245000", "195303.250000", "195304.252500", "195305.257500", "195306.260000", "195307.265000", "195308.270000", "195309.272500", "195310.277500", "195311.280000", "195312.285000", "195313.290000", "195314.292500", "195315.297500", "195316.300000", "195317.305000", "195318.310000", "195319.312500", "195320.317500", "195321.322500", "195322.325000", "195323.330000", "195324.332500", "195325.337500", "195326.342500", "195327.345000", "195328.350000", "195329.352500", "195330.357500", "195331.362500", "195332.365000", "195333.370000", "195334.372500", "195335.377500", "195336.382500", "195337.385000", "195338.390000", "195339.392500", "195340.397500", "195341.402500", "195342.405000", "195343.410000", "195344.412500", "195345.417500", "195346.422500", "195347.425000", "195348.430000", "195349.432500", "195350.437500", "195351.442500", "195352.445000", "195353.450000", "195354.455000", "195355.457500", "195356.462500", "195357.465000", "195358.470000", "195359.475000", "195400.477500", "195401.482500", "195402.485000", "195403.490000", "195404.495000", "195405.497500", "195406.502500", "195407.505000", "195408.510000", "195409.515000", "195410.517500", "195411.522500", "195412.525000", "195413.530000", "195414.535000", "195415.537500", "195416.542500", "195417.545000", "195418.550000", "195419.555000", "195420.557500", "195421.562500", "195422.565000", "195423.570000", "195424.575000", "195425.577500", "195426.582500", "195427.587500", "195428.590000", "195429.595000", "195430.597500", "195431.602500", "195432.607500", "195433.610000", "195434.615000", "195435.617500", "195436.622500", "195437.627500", "195438.630000", "195439.635000", "195440.637500", "195441.642500", "195442.647500", "195443.650000", "195444.655000", "195445.657500", "195446.662500", "195447.667500", "195448.670000", "195449.675000", "195450.677500", "195451.682500", "195452.687500", "195453.690000", "195454.695000", "195455.700000", "195456.702500", "195457.707500", "195458.710000", "195459.715000", "195500.720000", "195501.722500", "195502.727500", "195503.730000", "195504.735000", "195505.740000", "195506.742500", "195507.747500", "195508.750000", "195509.755000", "195510.760000", "195511.762500", "195512.767500", "195513.770000", "195514.775000", "195515.780000", "195516.782500", "195517.787500", "195518.790000", "195519.795000", "195520.800000", "195521.802500", "195522.807500", "195523.810000", "195524.815000", "195525.820000", "195526.822500", "195527.827500", "195528.832500", "195529.835000", "195530.840000", "195531.842500", "195532.847500", "195533.852500", "195534.855000", "195535.860000", "195536.862500", "195537.867500", "195538.872500", "195539.875000", "195540.880000", "195541.882500", "195542.887500", "195543.892500", "195544.895000", "195545.900000", "195546.902500", "195547.907500", "195548.912500", "195549.915000", "195550.920000", "195551.922500", "195552.927500", "195553.932500", "195554.935000", "195555.940000", "195556.942500", "195557.947500", "195558.952500", "195559.955000", "195600.960000", "195601.965000", "195602.967500", "195603.972500", "195604.975000", "195605.980000", "195606.985000", "195607.987500", "195608.992500", "195609.995000", "195611.000000", "195612.005000", "195613.007500", "195614.012500", "195615.015000", "195616.020000", "195617.025000", "195618.027500", "195619.032500", "195620.035000", "195621.040000", "195622.045000", "195623.047500", "195624.052500", "195625.055000", "195626.060000", "195627.065000", "195628.067500", "195629.072500", "195630.077500", "195631.080000", "195632.085000", "195633.087500", "195634.092500", "195635.097500", "195636.100000", "195637.105000", "195638.107500", "195639.112500", "195640.117500", "195641.120000", "195642.125000", "195643.127500", "195644.132500", "195645.137500", "195646.140000", "195647.145000", "195648.147500", "195649.152500", "195650.157500", "195651.160000", "195652.165000", "195653.167500", "195654.172500", "195655.177500", "195656.180000", "195657.185000", "195658.187500", "195659.192500", "195700.197500", "195701.200000", "195702.205000", "195703.210000", "195704.212500", "195705.217500", "195706.220000", "195707.225000", "195708.230000", "195709.232500", "195710.237500", "195711.240000", "195712.245000", "195713.250000", "195714.252500", "195715.257500", "195716.260000", "195717.265000", "195718.270000", "195719.272500", "195720.277500", "195721.280000", "195722.285000", "195723.290000", "195724.292500", "195725.297500", "195726.300000", "195727.305000", "195728.310000", "195729.312500", "195730.317500", "195731.322500", "195732.325000", "195733.330000", "195734.332500", "195735.337500", "195736.342500", "195737.345000", "195738.350000", "195739.352500", "195740.357500", "195741.362500", "195742.365000", "195743.370000", "195744.372500", "195745.377500", "195746.382500", "195747.385000", "195748.390000", "195749.392500", "195750.397500", "195751.402500", "195752.405000", "195753.410000", "195754.412500", "195755.417500", "195756.422500", "195757.425000", "195758.430000", "195759.432500", "195800.437500", "195801.442500", "195802.445000", "195803.450000", "195804.455000", "195805.457500", "195806.462500", "195807.465000", "195808.470000", "195809.475000", "195810.477500", "195811.482500", "195812.485000", "195813.490000", "195814.495000", "195815.497500", "195816.502500", "195817.505000", "195818.510000", "195819.515000", "195820.517500", "195821.522500", "195822.525000", "195823.530000", "195824.535000", "195825.537500", "195826.542500", "195827.545000", "195828.550000", "195829.555000", "195830.557500", "195831.562500", "195832.565000", "195833.570000", "195834.575000", "195835.577500", "195836.582500", "195837.587500", "195838.590000", "195839.595000", "195840.597500", "195841.602500", "195842.607500", "195843.610000", "195844.615000", "195845.617500", "195846.622500", "195847.627500", "195848.630000", "195849.635000", "195850.637500", "195851.642500", "195852.647500", "195853.650000", "195854.655000", "195855.657500", "195856.662500", "195857.667500", "195858.670000", "195859.675000", "195900.677500", "195901.682500", "195902.687500", "195903.690000", "195904.695000", "195905.700000", "195906.702500", "195907.707500", "195908.710000", "195909.715000", "195910.720000", "195911.722500", "195912.727500", "195913.730000", "195914.735000", "195915.740000", "195916.742500", "195917.747500", "195918.750000", "195919.755000", "195920.760000", "195921.762500", "195922.767500", "195923.770000", "195924.775000", "195925.780000", "195926.782500", "195927.787500", "195928.790000", "195929.795000", "195930.800000", "195931.802500", "195932.807500", "195933.810000", "195934.815000", "195935.820000", "195936.822500", "195937.827500", "195938.832500", "195939.835000", "195940.840000", "195941.842500", "195942.847500", "195943.852500", "195944.855000", "195945.860000", "195946.862500", "195947.867500", "195948.872500", "195949.875000", "195950.880000", "195951.882500", "195952.887500", "195953.892500", "195954.895000", "195955.900000", "195956.902500", "195957.907500", "195958.912500", "195959.915000", "200000.920000", "200001.922500", "200002.927500", "200003.932500", "200004.935000", "200005.940000", "200006.942500", "200007.947500", "200008.952500", "200009.955000", "200010.960000", "200011.965000", "200012.967500", "200013.972500", "200014.975000", "200015.980000", "200016.985000", "200017.987500", "200018.992500", "200019.995000", "200021.000000", "200022.005000", "200023.007500", "200024.012500", "200025.015000", "200026.020000", "200027.025000", "200028.027500", "200029.032500", "200030.035000", "200031.040000", "200032.045000", "200033.047500", "200034.052500", "200035.055000", "200036.060000", "200037.065000", "200038.067500", "200039.072500", "200040.077500", "200041.080000", "200042.085000", "200043.087500", "200044.092500", "200045.097500", "200046.100000", "200047.105000", "200048.107500", "200049.112500", "200050.117500", "200051.120000", "200052.125000", "200053.127500", "200054.132500", "200055.137500", "200056.140000", "200057.145000", "200058.147500", "200059.152500", "200100.157500", "200101.160000", "200102.165000", "200103.167500", "200104.172500", "200105.177500", "200106.180000", "200107.185000", "200108.187500", "200109.192500", "200110.197500", "200111.200000", "200112.205000", "200113.210000", "200114.212500", "200115.217500", "200116.220000", "200117.225000", "200118.230000", "200119.232500", "200120.237500", "200121.240000", "200122.245000", "200123.250000", "200124.252500", "200125.257500", "200126.260000", "200127.265000", "200128.270000", "200129.272500", "200130.277500", "200131.280000", "200132.285000", "200133.290000", "200134.292500", "200135.297500", "200136.300000", "200137.305000", "200138.310000", "200139.312500", "200140.317500", "200141.322500", "200142.325000", "200143.330000", "200144.332500", "200145.337500", "200146.342500", "200147.345000", "200148.350000", "200149.352500", "200150.357500", "200151.362500", "200152.365000", "200153.370000", "200154.372500", "200155.377500", "200156.382500", "200157.385000", "200158.390000", "200159.392500", "200200.397500", "200201.402500", "200202.405000", "200203.410000", "200204.412500", "200205.417500", "200206.422500", "200207.425000", "200208.430000", "200209.432500", "200210.437500", "200211.442500", "200212.445000", "200213.450000", "200214.455000", "200215.457500", "200216.462500", "200217.465000", "200218.470000", "200219.475000", "200220.477500", "200221.482500", "200222.485000", "200223.490000", "200224.495000", "200225.497500", "200226.502500", "200227.505000", "200228.510000", "200229.515000", "200230.517500", "200231.522500", "200232.525000", "200233.530000", "200234.535000", "200235.537500", "200236.542500", "200237.545000", "200238.550000", "200239.555000", "200240.557500", "200241.562500", "200242.565000", "200243.570000", "200244.575000", "200245.577500", "200246.582500", "200247.587500", "200248.590000", "200249.595000", "200250.597500", "200251.602500", "200252.607500", "200253.610000", "200254.615000", "200255.617500", "200256.622500", "200257.627500", "200258.630000", "200259.635000", "200300.637500", "200301.642500", "200302.647500", "200303.650000", "200304.655000", "200305.657500", "200306.662500", "200307.667500", "200308.670000", "200309.675000", "200310.677500", "200311.682500", "200312.687500", "200313.690000", "200314.695000", "200315.700000", "200316.702500", "200317.707500", "200318.710000", "200319.715000", "200320.720000", "200321.722500", "200322.727500", "200323.730000", "200324.735000", "200325.740000", "200326.742500", "200327.747500", "200328.750000", "200329.755000", "200330.760000", "200331.762500", "200332.767500", "200333.770000", "200334.775000", "200335.780000", "200336.782500", "200337.787500", "200338.790000", "200339.795000", "200340.800000", "200341.802500", "200342.807500", "200343.810000", "200344.815000", "200345.820000", "200346.822500", "200347.827500", "200348.832500", "200349.835000", "200350.840000", "200351.842500", "200352.847500", "200353.852500", "200354.855000", "200355.860000", "200356.862500", "200357.867500", "200358.872500", "200359.875000", "200400.880000", "200401.882500", "200402.887500", "200403.892500", "200404.895000", "200405.900000", "200406.902500", "200407.907500", "200408.912500", "200409.915000", "200410.920000", "200411.922500", "200412.927500", "200413.932500", "200414.935000", "200415.940000", "200416.942500", "200417.947500", "200418.952500", "200419.955000", "200420.960000", "200421.965000", "200422.967500", "200423.972500", "200424.975000", "200425.980000", "200426.985000", "200427.987500", "200428.992500", "200429.995000", "200431.000000", "200432.005000", "200433.007500", "200434.012500", "200435.015000", "200436.020000", "200437.025000", "200438.027500", "200439.032500", "200440.035000", "200441.040000", "200442.045000", "200443.047500", "200444.052500", "200445.055000", "200446.060000", "200447.065000", "200448.067500", "200449.072500", "200450.077500", "200451.080000", "200452.085000", "200453.087500", "200454.092500", "200455.097500", "200456.100000", "200457.105000", "200458.107500", "200459.112500", "200500.117500", "200501.120000", "200502.125000", "200503.127500", "200504.132500", "200505.137500", "200506.140000", "200507.145000", "200508.147500", "200509.152500", "200510.157500", "200511.160000", "200512.165000", "200513.167500", "200514.172500", "200515.177500", "200516.180000", "200517.185000", "200518.187500", "200519.192500", "200520.197500", "200521.200000", "200522.205000", "200523.210000", "200524.212500", "200525.217500", "200526.220000", "200527.225000", "200528.230000", "200529.232500", "200530.237500", "200531.240000", "200532.245000", "200533.250000", "200534.252500", "200535.257500", "200536.260000", "200537.265000", "200538.270000", "200539.272500", "200540.277500", "200541.280000", "200542.285000", "200543.290000", "200544.292500", "200545.297500", "200546.300000", "200547.305000", "200548.310000", "200549.312500", "200550.317500", "200551.322500", "200552.325000", "200553.330000", "200554.332500", "200555.337500", "200556.342500", "200557.345000", "200558.350000", "200559.352500", "200600.357500", "200601.362500", "200602.365000", "200603.370000", "200604.372500", "200605.377500", "200606.382500", "200607.385000", "200608.390000", "200609.392500", "200610.397500", "200611.402500", "200612.405000", "200613.410000", "200614.412500", "200615.417500", "200616.422500", "200617.425000", "200618.430000", "200619.432500", "200620.437500", "200621.442500", "200622.445000", "200623.450000", "200624.455000", "200625.457500", "200626.462500", "200627.465000", "200628.470000", "200629.475000", "200630.477500", "200631.482500", "200632.485000", "200633.490000", "200634.495000", "200635.497500", "200636.502500", "200637.505000", "200638.510000", "200639.515000", "200640.517500", "200641.522500", "200642.525000", "200643.530000", "200644.535000", "200645.537500", "200646.542500", "200647.545000", "200648.550000", "200649.555000", "200650.557500", "200651.562500", "200652.565000", "200653.570000", "200654.575000", "200655.577500", "200656.582500", "200657.587500", "200658.590000", "200659.595000", "200700.597500", "200701.602500", "200702.607500", "200703.610000", "200704.615000", "200705.617500", "200706.622500", "200707.627500", "200708.630000", "200709.635000", "200710.637500", "200711.642500", "200712.647500", "200713.650000", "200714.655000", "200715.657500", "200716.662500", "200717.667500", "200718.670000", "200719.675000", "200720.677500", "200721.682500", "200722.687500", "200723.690000", "200724.695000", "200725.700000", "200726.702500", "200727.707500", "200728.710000", "200729.715000", "200730.720000", "200731.722500", "200732.727500", "200733.730000", "200734.735000", "200735.740000", "200736.742500", "200737.747500", "200738.750000", "200739.755000", "200740.760000", "200741.762500", "200742.767500", "200743.770000", "200744.775000", "200745.780000", "200746.782500", "200747.787500", "200748.790000", "200749.795000", "200750.800000", "200751.802500", "200752.807500", "200753.810000", "200754.815000", "200755.820000", "200756.822500", "200757.827500", "200758.832500", "200759.835000", "200800.840000", "200801.842500", "200802.847500", "200803.852500", "200804.855000", "200805.860000", "200806.862500", "200807.867500", "200808.872500", "200809.875000", "200810.880000", "200811.882500", "200812.887500", "200813.892500", "200814.895000", "200815.900000", "200816.902500", "200817.907500", "200818.912500", "200819.915000", "200820.920000", "200821.922500", "200822.927500", "200823.932500", "200824.935000", "200825.940000", "200826.942500", "200827.947500", "200828.952500", "200829.955000", "200830.960000", "200831.965000", "200832.967500", "200833.972500", "200834.975000", "200835.980000", "200836.985000", "200837.987500", "200838.992500", "200839.995000", "200841.000000", "200842.005000", "200843.007500", "200844.012500", "200845.015000", "200846.020000", "200847.025000", "200848.027500", "200849.032500", "200850.035000", "200851.040000", "200852.045000", "200853.047500", "200854.052500", "200855.055000", "200856.060000", "200857.065000", "200858.067500", "200859.072500", "200900.077500", "200901.080000", "200902.085000", "200903.087500", "200904.092500", "200905.097500", "200906.100000", "200907.105000", "200908.107500", "200909.112500", "200910.117500", "200911.120000", "200912.125000", "200913.127500", "200914.132500", "200915.137500", "200916.140000", "200917.145000", "200918.147500", "200919.152500", "200920.157500", "200921.160000", "200922.165000", "200923.167500", "200924.172500", "200925.177500", "200926.180000", "200927.185000", "200928.187500", "200929.192500", "200930.197500", "200931.200000", "200932.205000", "200933.210000", "200934.212500", "200935.217500", "200936.220000", "200937.225000", "200938.230000", "200939.232500", "200940.237500", "200941.240000", "200942.245000", "200943.250000", "200944.252500", "200945.257500", "200946.260000", "200947.265000", "200948.270000", "200949.272500", "200950.277500", "200951.280000", "200952.285000", "200953.290000", "200954.292500", "200955.297500", "200956.300000", "200957.305000", "200958.310000", "200959.312500", "201000.317500", "201001.322500", "201002.325000", "201003.330000", "201004.332500", "201005.337500", "201006.342500", "201007.345000", "201008.350000", "201009.352500"],
