{
  "AcquisitionMatrixPE": 64,
  "AcquisitionNumber": 1,
  "AcquisitionTime": "18:33:8.342500",
  "BandwidthPerPixelPhaseEncode": 19.531,
  "BaseResolution": 64,
  "CoilString": "C:HEA;HEP",
  "ConversionSoftware": "dcm2niix",
  "ConversionSoftwareVersion": "v1.0.20190902",
  "DerivedVendorReportedEchoSpacing": 0.00080001,
  "DeviceSerialNumber": "26099",
  "DwellTime": 5.3e-06,
  "EchoTime": 0.0548,
  "EffectiveEchoSpacing": 0.00080001,
  "FlipAngle": 75,
  "ImageComments": "Unaliased_MB4_PE3_LB_SENSE1",
  "ImageOrientationPatientDICOM": [1, 2e-16, 0, -2e-16, 0.969016, -0.246999],
  "ImageType": [
    "ORIGINAL",
    "PRIMARY",
    "M",
    "MB",
    "ND",
    "MOSAIC"
],
  "ImagingFrequency": 63.6805,
  "InPlanePhaseEncodingDirectionDICOM": "COL",
  "InstitutionAddress": "Bedford_Way_26_London_London_GB_WC1H_0AP",
  "InstitutionName": "BUCNI",
  "InstitutionalDepartmentName": "Department",
  "MRAcquisitionType": "2D",
  "MagneticFieldStrength": 1.5,
  "Manufacturer": "Siemens",
  "ManufacturersModelName": "Avanto",
  "Modality": "MR",
  "MultibandAccelerationFactor": 4,
  "PartialFourier": 1,
  "PatientPosition": "HFS",
  "PercentPhaseFOV": 100,
  "PhaseEncodingDirection": "j-",
  "PhaseEncodingSteps": 64,
  "PhaseResolution": 1,
  "PixelBandwidth": 1474,
  "ProcedureStepDescription": "ucl_bbk_Jeremy",
  "ProtocolName": "EcL4-3.2m-40-1474-1s-55e",
  "PulseSequenceDetails": "%CustomerSeq%_cmrr_mbep2d_bold",
  "ReceiveCoilName": "32Ch_Head",
  "ReconMatrixPE": 64,
  "RepetitionTime": 1,
  "SAR": 0.0457533,
  "ScanOptions": "FS",
  "ScanningSequence": "EP",
  "SequenceName": "epfid2d1_64",
  "SequenceVariant": "SK_SS",
  "SeriesDescription": "EcL4-3.2m-40-1474-1s-55e",
  "SeriesNumber": 6,
  "ShimSetting": [104, 19, 231, 468, -116, 775, -351, 269],
  "SliceThickness": 3.2,
  "SliceTiming": [0, 0.7025, 0.4025, 0.1025, 0.805, 0.5025, 0.2025, 0.905, 0.6025, 0.3025, 0, 0.7025, 0.4025, 0.1025, 0.805, 0.5025, 0.2025, 0.905, 0.6025, 0.3025, 0, 0.7025, 0.4025, 0.1025, 0.805, 0.5025, 0.2025, 0.905, 0.6025, 0.3025, 0, 0.7025, 0.4025, 0.1025, 0.805, 0.5025, 0.2025, 0.905, 0.6025, 0.3025],
  "SoftwareVersions": "syngo_MR_B17",
  "SpacingBetweenSlices": 3.2,
  "StationName": "MRC26099",
  "TaskName": "citizenfour",
  "CogAtlasID": "http://www.cognitiveatlas.org/task/id/tsk_jbg1oF4D9OTkO/",
  "TotalReadoutTime": 0.0504006,
  "TxRefAmp": 224.404,
  "dcmmeta_affine": [
    [-3.203125, -6.40624994052057e-16, 1.5807936343101612e-16, 102.5],
    [-6.40624994052057e-16, 3.1038784980773926, -0.7903968095779419, -76.5459976196289],
    [0.0, 0.7911686897277832, 3.1008503437042236, -65.96133422851562],
    [0.0, 0.0, 0.0, 1.0]
],
  "dcmmeta_reorient_transform": [
    [0.0, -1.0, 0.0, 63.0],
    [1.0, 0.0, 0.0, 0.0],
    [0.0, 0.0, 1.0, 0.0],
    [0.0, 0.0, 0.0, 1.0]
],
  "dcmmeta_shape": [64, 64, 40, 325],
  "dcmmeta_slice_dim": 2,
  "dcmmeta_version": 0.6,
  "global": {
    "const": {
      "AcquisitionMatrix": [64, 0, 0, 64],
      "AngioFlag": "N",
      "BitsAllocated": 16,
      "BitsStored": 12,
      "Columns": 448,
      "EchoNumbers": 1,
      "EchoTime": 54.8,
      "EchoTrainLength": 1,
      "FlipAngle": 75.0,
      "HighBit": 11,
      "ImageOrientationPatient": [1.0, 2e-16, 0.0, -2e-16, 0.96901573474031, -0.2469989996451],
      "ImagePositionPatient": [-717.5, -714.94302978848, 135.78667787526],
      "ImageType": [
        "ORIGINAL",
        "PRIMARY",
        "M",
        "MB",
        "ND",
        "MOSAIC"
],
      "ImagedNucleus": "1H",
      "ImagingFrequency": 63.680539,
      "InPlanePhaseEncodingDirection": "COL",
      "MRAcquisitionType": "2D",
      "MagneticFieldStrength": 1.5,
      "Manufacturer": "SIEMENS",
      "ManufacturerModelName": "Avanto",
      "Modality": "MR",
      "NumberOfAverages": 1.0,
      "NumberOfPhaseEncodingSteps": 64,
      "PercentPhaseFieldOfView": 100.0,
      "PercentSampling": 100.0,
      "PerformedProcedureStepStartTime": "171138.984000",
      "PhotometricInterpretation": "MONOCHROME2",
      "PixelBandwidth": 1474.0,
      "PixelRepresentation": 0,
      "PixelSpacing": [3.203125, 3.203125],
      "ProtocolName": "EcL4-3.2m-40-1474-1s-55e",
      "RepetitionTime": 1000.0,
      "Rows": 448,
      "SAR": 0.04575332740779,
      "SamplesPerPixel": 1,
      "ScanOptions": "FS",
      "ScanningSequence": "EP",
      "SequenceName": "epfid2d1_64",
      "SequenceVariant": [
        "SK",
        "SS"
],
      "SeriesDescription": "EcL4-3.2m-40-1474-1s-55e",
      "SeriesNumber": 6,
      "SeriesTime": "183400.390000",
      "SliceLocation": -45.010785731768,
      "SliceThickness": 3.2000000476837,
      "SmallestImagePixelValue": 0,
      "SoftwareVersions": "syngo MR B17",
      "SpacingBetweenSlices": 3.200000085258,
      "SpecificCharacterSet": "ISO_IR 100",
      "StudyID": "1",
      "StudyTime": "171138.921000",
      "TransmitCoilName": "Body",
      "VariableFlipAngleFlag": "N",
      "WindowCenterWidthExplanation": "Algo1",
      "dBdt": 0.0},
    "slices": {}
  },
  "time": {
    "samples": {
      "AcquisitionNumber": [1, 2, 3, 4, 5, 6, 7, 8, 9, 10, 11, 12, 13, 14, 15, 16, 17, 18, 19, 20, 21, 22, 23, 24, 25, 26, 27, 28, 29, 30, 31, 32, 33, 34, 35, 36, 37, 38, 39, 40, 41, 42, 43, 44, 45, 46, 47, 48, 49, 50, 51, 52, 53, 54, 55, 56, 57, 58, 59, 60, 61, 62, 63, 64, 65, 66, 67, 68, 69, 70, 71, 72, 73, 74, 75, 76, 77, 78, 79, 80, 81, 82, 83, 84, 85, 86, 87, 88, 89, 90, 91, 92, 93, 94, 95, 96, 97, 98, 99, 100, 101, 102, 103, 104, 105, 106, 107, 108, 109, 110, 111, 112, 113, 114, 115, 116, 117, 118, 119, 120, 121, 122, 123, 124, 125, 126, 127, 128, 129, 130, 131, 132, 133, 134, 135, 136, 137, 138, 139, 140, 141, 142, 143, 144, 145, 146, 147, 148, 149, 150, 151, 152, 153, 154, 155, 156, 157, 158, 159, 160, 161, 162, 163, 164, 165, 166, 167, 168, 169, 170, 171, 172, 173, 174, 175, 176, 177, 178, 179, 180, 181, 182, 183, 184, 185, 186, 187, 188, 189, 190, 191, 192, 193, 194, 195, 196, 197, 198, 199, 200, 201, 202, 203, 204, 205, 206, 207, 208, 209, 210, 211, 212, 213, 214, 215, 216, 217, 218, 219, 220, 221, 222, 223, 224, 225, 226, 227, 228, 229, 230, 231, 232, 233, 234, 235, 236, 237, 238, 239, 240, 241, 242, 243, 244, 245, 246, 247, 248, 249, 250, 251, 252, 253, 254, 255, 256, 257, 258, 259, 260, 261, 262, 263, 264, 265, 266, 267, 268, 269, 270, 271, 272, 273, 274, 275, 276, 277, 278, 279, 280, 281, 282, 283, 284, 285, 286, 287, 288, 289, 290, 291, 292, 293, 294, 295, 296, 297, 298, 299, 300, 301, 302, 303, 304, 305, 306, 307, 308, 309, 310, 311, 312, 313, 314, 315, 316, 317, 318, 319, 320, 321, 322, 323, 324, 325],
      "AcquisitionTime": ["183308.342500", "183309.347500", "183310.352500", "183311.355000", "183312.360000", "183313.365000", "183314.367500", "183315.372500", "183316.375000", "183317.380000", "183318.385000", "183319.387500", "183320.392500", "183321.395000", "183322.400000", "183323.405000", "183324.407500", "183325.412500", "183326.415000", "183327.420000", "183328.425000", "183329.427500", "183330.432500", "183331.435000", "183332.440000", "183333.445000", "183334.447500", "183335.452500", "183336.455000", "183337.460000", "183338.465000", "183339.467500", "183340.472500", "183341.475000", "183342.480000", "183343.485000", "183344.487500", "183345.492500", "183346.497500", "183347.500000", "183348.505000", "183349.507500", "183350.512500", "183351.517500", "183352.520000", "183353.525000", "183354.527500", "183355.532500", "183356.537500", "183357.540000", "183358.545000", "183359.547500", "183400.552500", "183401.557500", "183402.560000", "183403.565000", "183404.567500", "183405.572500", "183406.577500", "183407.580000", "183408.585000", "183409.587500", "183410.592500", "183411.597500", "183412.600000", "183413.605000", "183414.610000", "183415.612500", "183416.617500", "183417.620000", "183418.625000", "183419.630000", "183420.632500", "183421.637500", "183422.640000", "183423.645000", "183424.650000", "183425.652500", "183426.657500", "183427.660000", "183428.665000", "183429.670000", "183430.672500", "183431.677500", "183432.680000", "183433.685000", "183434.690000", "183435.692500", "183436.697500", "183437.700000", "183438.705000", "183439.710000", "183440.712500", "183441.717500", "183442.720000", "183443.725000", "183444.730000", "183445.732500", "183446.737500", "183447.742500", "183448.745000", "183449.750000", "183450.752500", "183451.757500", "183452.762500", "183453.765000", "183454.770000", "183455.772500", "183456.777500", "183457.782500", "183458.785000", "183459.790000", "183500.792500", "183501.797500", "183502.802500", "183503.805000", "183504.810000", "183505.812500", "183506.817500", "183507.822500", "183508.825000", "183509.830000", "183510.832500", "183511.837500", "183512.842500", "183513.845000", "183514.850000", "183515.852500", "183516.857500", "183517.862500", "183518.865000", "183519.870000", "183520.875000", "183521.877500", "183522.882500", "183523.885000", "183524.890000", "183525.895000", "183526.897500", "183527.902500", "183528.905000", "183529.910000", "183530.915000", "183531.917500", "183532.922500", "183533.925000", "183534.930000", "183535.935000", "183536.937500", "183537.942500", "183538.945000", "183539.950000", "183540.955000", "183541.957500", "183542.962500", "183543.965000", "183544.970000", "183545.975000", "183546.977500", "183547.982500", "183548.987500", "183549.990000", "183550.995000", "183551.997500", "183553.002500", "183554.007500", "183555.010000", "183556.015000", "183557.017500", "183558.022500", "183559.027500", "183600.030000", "183601.035000", "183602.037500", "183603.042500", "183604.047500", "183605.050000", "183606.055000", "183607.057500", "183608.062500", "183609.067500", "183610.070000", "183611.075000", "183612.077500", "183613.082500", "183614.087500", "183615.090000", "183616.095000", "183617.097500", "183618.102500", "183619.107500", "183620.110000", "183621.115000", "183622.120000", "183623.122500", "183624.127500", "183625.130000", "183626.135000", "183627.140000", "183628.142500", "183629.147500", "183630.150000", "183631.155000", "183632.160000", "183633.162500", "183634.167500", "183635.170000", "183636.175000", "183637.180000", "183638.182500", "183639.187500", "183640.190000", "183641.195000", "183642.200000", "183643.202500", "183644.207500", "183645.210000", "183646.215000", "183647.220000", "183648.222500", "183649.227500", "183650.230000", "183651.235000", "183652.240000", "183653.242500", "183654.247500", "183655.252500", "183656.255000", "183657.260000", "183658.262500", "183659.267500", "183700.272500", "183701.275000", "183702.280000", "183703.282500", "183704.287500", "183705.292500", "183706.295000", "183707.300000", "183708.302500", "183709.307500", "183710.312500", "183711.315000", "183712.320000", "183713.322500", "183714.327500", "183715.332500", "183716.335000", "183717.340000", "183718.342500", "183719.347500", "183720.352500", "183721.355000", "183722.360000", "183723.365000", "183724.367500", "183725.372500", "183726.375000", "183727.380000", "183728.385000", "183729.387500", "183730.392500", "183731.395000", "183732.400000", "183733.405000", "183734.407500", "183735.412500", "183736.415000", "183737.420000", "183738.425000", "183739.427500", "183740.432500", "183741.435000", "183742.440000", "183743.445000", "183744.447500", "183745.452500", "183746.455000", "183747.460000", "183748.465000", "183749.467500", "183750.472500", "183751.475000", "183752.480000", "183753.485000", "183754.487500", "183755.492500", "183756.497500", "183757.500000", "183758.505000", "183759.507500", "183800.512500", "183801.517500", "183802.520000", "183803.525000", "183804.527500", "183805.532500", "183806.537500", "183807.540000", "183808.545000", "183809.547500", "183810.552500", "183811.557500", "183812.560000", "183813.565000", "183814.567500", "183815.572500", "183816.577500", "183817.580000", "183818.585000", "183819.587500", "183820.592500", "183821.597500", "183822.600000", "183823.605000", "183824.610000", "183825.612500", "183826.617500", "183827.620000", "183828.625000", "183829.630000", "183830.632500", "183831.637500", "183832.640000", "183833.645000"],
      "ContentTime": ["183400.390000", "183400.390000", "183400.390000", "183400.390000", "183400.406000", "183400.406000", "183400.406000", "183400.406000", "183400.406000", "183400.406000", "183400.421000", "183400.421000", "183400.421000", "183400.421000", "183400.437000", "183400.437000", "183400.437000", "183400.437000", "183400.437000", "183400.437000", "183400.437000", "183400.453000", "183400.453000", "183400.453000", "183400.453000", "183400.453000", "183400.453000", "183400.468000", "183400.468000", "183400.468000", "183400.468000", "183400.468000", "183400.484000", "183400.484000", "183400.484000", "183400.484000", "183400.484000", "183400.500000", "183400.500000", "183400.500000", "183400.500000", "183400.500000", "183400.500000", "183400.500000", "183400.515000", "183420.359000", "183420.359000", "183420.359000", "183420.375000", "183420.375000", "183420.375000", "183420.375000", "183420.375000", "183420.375000", "183420.375000", "183420.390000", "183420.390000", "183420.390000", "183420.390000", "183420.390000", "183420.390000", "183420.406000", "183420.406000", "183420.406000", "183420.406000", "183420.406000", "183420.406000", "183420.406000", "183420.421000", "183420.421000", "183420.421000", "183440.359000", "183440.359000", "183440.359000", "183440.359000", "183440.359000", "183440.359000", "183440.375000", "183440.375000", "183440.390000", "183440.390000", "183440.390000", "183440.390000", "183440.390000", "183440.390000", "183440.406000", "183440.406000", "183440.406000", "183440.406000", "183440.406000", "183440.406000", "183500.359000", "183500.359000", "183500.359000", "183500.359000", "183500.359000", "183500.359000", "183500.375000", "183500.375000", "183500.375000", "183500.375000", "183500.375000", "183500.375000", "183500.390000", "183500.390000", "183500.390000", "183500.390000", "183500.406000", "183500.406000", "183500.406000", "183500.406000", "183520.359000", "183520.359000", "183520.359000", "183520.359000", "183520.359000", "183520.359000", "183520.375000", "183520.375000", "183520.375000", "183520.375000", "183520.375000", "183520.390000", "183520.390000", "183520.390000", "183520.390000", "183520.390000", "183520.390000", "183520.390000", "183520.406000", "183520.406000", "183540.359000", "183540.359000", "183540.359000", "183540.359000", "183540.359000", "183540.359000", "183540.375000", "183540.375000", "183540.375000", "183540.375000", "183540.375000", "183540.375000", "183540.390000", "183540.390000", "183540.390000", "183540.390000", "183540.390000", "183540.390000", "183540.390000", "183540.406000", "183600.359000", "183600.359000", "183600.359000", "183600.359000", "183600.359000", "183600.375000", "183600.375000", "183600.375000", "183600.375000", "183600.375000", "183600.375000", "183600.375000", "183600.390000", "183600.390000", "183600.390000", "183600.390000", "183600.390000", "183600.390000", "183600.406000", "183600.406000", "183620.359000", "183620.359000", "183620.359000", "183620.359000", "183620.359000", "183620.359000", "183620.375000", "183620.375000", "183620.375000", "183620.390000", "183620.390000", "183620.390000", "183620.390000", "183620.390000", "183620.390000", "183620.390000", "183620.406000", "183620.406000", "183620.406000", "183620.406000", "183640.359000", "183640.359000", "183640.359000", "183640.359000", "183640.359000", "183640.375000", "183640.375000", "183640.375000", "183640.375000", "183640.390000", "183640.390000", "183640.390000", "183640.406000", "183640.406000", "183640.406000", "183640.406000", "183640.406000", "183640.406000", "183640.421000", "183640.421000", "183700.359000", "183700.359000", "183700.359000", "183700.359000", "183700.375000", "183700.375000", "183700.375000", "183700.375000", "183700.375000", "183700.375000", "183700.390000", "183700.390000", "183700.390000", "183700.390000", "183700.390000", "183700.390000", "183700.406000", "183700.406000", "183700.406000", "183700.406000", "183720.359000", "183720.359000", "183720.359000", "183720.359000", "183720.359000", "183720.359000", "183720.375000", "183720.375000", "183720.375000", "183720.375000", "183720.375000", "183720.375000", "183720.390000", "183720.390000", "183720.390000", "183720.390000", "183720.406000", "183720.406000", "183720.406000", "183720.406000", "183740.359000", "183740.359000", "183740.359000", "183740.359000", "183740.359000", "183740.359000", "183740.375000", "183740.375000", "183740.375000", "183740.375000", "183740.375000", "183740.375000", "183740.390000", "183740.390000", "183740.390000", "183740.390000", "183740.406000", "183740.406000", "183740.406000", "183740.406000", "183800.359000", "183800.359000", "183800.359000", "183800.359000", "183800.359000", "183800.375000", "183800.375000", "183800.375000", "183800.375000", "183800.390000", "183800.390000", "183800.390000", "183800.390000", "183800.390000", "183800.406000", "183800.406000", "183800.406000", "183800.406000", "183800.406000", "183800.406000", "183820.359000", "183820.359000", "183820.359000", "183820.359000", "183820.359000", "183820.375000", "183820.375000", "183820.375000", "183820.375000", "183820.375000", "183820.375000", "183820.390000", "183820.390000", "183820.390000", "183820.406000", "183820.406000", "183820.406000", "183820.406000", "183820.406000", "183820.421000", "183834.468000", "183834.468000", "183834.484000", "183834.484000", "183834.484000", "183834.484000", "183834.484000", "183834.500000", "183834.500000", "183834.500000", "183834.500000", "183834.500000", "183834.515000", "183834.515000"],
      "InstanceCreationTime": ["183400.390000", "183400.390000", "183400.390000", "183400.390000", "183400.406000", "183400.406000", "183400.406000", "183400.406000", "183400.406000", "183400.406000", "183400.421000", "183400.421000", "183400.421000", "183400.421000", "183400.437000", "183400.437000", "183400.437000", "183400.437000", "183400.437000", "183400.437000", "183400.437000", "183400.453000", "183400.453000", "183400.453000", "183400.453000", "183400.453000", "183400.453000", "183400.468000", "183400.468000", "183400.468000", "183400.468000", "183400.468000", "183400.484000", "183400.484000", "183400.484000", "183400.484000", "183400.484000", "183400.500000", "183400.500000", "183400.500000", "183400.500000", "183400.500000", "183400.500000", "183400.500000", "183400.515000", "183420.359000", "183420.359000", "183420.359000", "183420.375000", "183420.375000", "183420.375000", "183420.375000", "183420.375000", "183420.375000", "183420.375000", "183420.390000", "183420.390000", "183420.390000", "183420.390000", "183420.390000", "183420.390000", "183420.406000", "183420.406000", "183420.406000", "183420.406000", "183420.406000", "183420.406000", "183420.406000", "183420.421000", "183420.421000", "183420.421000", "183440.359000", "183440.359000", "183440.359000", "183440.359000", "183440.359000", "183440.359000", "183440.375000", "183440.375000", "183440.390000", "183440.390000", "183440.390000", "183440.390000", "183440.390000", "183440.390000", "183440.406000", "183440.406000", "183440.406000", "183440.406000", "183440.406000", "183440.406000", "183500.359000", "183500.359000", "183500.359000", "183500.359000", "183500.359000", "183500.359000", "183500.375000", "183500.375000", "183500.375000", "183500.375000", "183500.375000", "183500.375000", "183500.390000", "183500.390000", "183500.390000", "183500.390000", "183500.406000", "183500.406000", "183500.406000", "183500.406000", "183520.359000", "183520.359000", "183520.359000", "183520.359000", "183520.359000", "183520.359000", "183520.375000", "183520.375000", "183520.375000", "183520.375000", "183520.375000", "183520.390000", "183520.390000", "183520.390000", "183520.390000", "183520.390000", "183520.390000", "183520.390000", "183520.406000", "183520.406000", "183540.359000", "183540.359000", "183540.359000", "183540.359000", "183540.359000", "183540.359000", "183540.375000", "183540.375000", "183540.375000", "183540.375000", "183540.375000", "183540.375000", "183540.390000", "183540.390000", "183540.390000", "183540.390000", "183540.390000", "183540.390000", "183540.390000", "183540.406000", "183600.359000", "183600.359000", "183600.359000", "183600.359000", "183600.359000", "183600.375000", "183600.375000", "183600.375000", "183600.375000", "183600.375000", "183600.375000", "183600.375000", "183600.390000", "183600.390000", "183600.390000", "183600.390000", "183600.390000", "183600.390000", "183600.406000", "183600.406000", "183620.359000", "183620.359000", "183620.359000", "183620.359000", "183620.359000", "183620.359000", "183620.375000", "183620.375000", "183620.375000", "183620.390000", "183620.390000", "183620.390000", "183620.390000", "183620.390000", "183620.390000", "183620.390000", "183620.406000", "183620.406000", "183620.406000", "183620.406000", "183640.359000", "183640.359000", "183640.359000", "183640.359000", "183640.359000", "183640.375000", "183640.375000", "183640.375000", "183640.375000", "183640.390000", "183640.390000", "183640.390000", "183640.406000", "183640.406000", "183640.406000", "183640.406000", "183640.406000", "183640.406000", "183640.421000", "183640.421000", "183700.359000", "183700.359000", "183700.359000", "183700.359000", "183700.375000", "183700.375000", "183700.375000", "183700.375000", "183700.375000", "183700.375000", "183700.390000", "183700.390000", "183700.390000", "183700.390000", "183700.390000", "183700.390000", "183700.406000", "183700.406000", "183700.406000", "183700.406000", "183720.359000", "183720.359000", "183720.359000", "183720.359000", "183720.359000", "183720.359000", "183720.375000", "183720.375000", "183720.375000", "183720.375000", "183720.375000", "183720.375000", "183720.390000", "183720.390000", "183720.390000", "183720.390000", "183720.406000", "183720.406000", "183720.406000", "183720.406000", "183740.359000", "183740.359000", "183740.359000", "183740.359000", "183740.359000", "183740.359000", "183740.375000", "183740.375000", "183740.375000", "183740.375000", "183740.375000", "183740.375000", "183740.390000", "183740.390000", "183740.390000", "183740.390000", "183740.406000", "183740.406000", "183740.406000", "183740.406000", "183800.359000", "183800.359000", "183800.359000", "183800.359000", "183800.359000", "183800.375000", "183800.375000", "183800.375000", "183800.375000", "183800.390000", "183800.390000", "183800.390000", "183800.390000", "183800.390000", "183800.406000", "183800.406000", "183800.406000", "183800.406000", "183800.406000", "183800.406000", "183820.359000", "183820.359000", "183820.359000", "183820.359000", "183820.359000", "183820.375000", "183820.375000", "183820.375000", "183820.375000", "183820.375000", "183820.375000", "183820.390000", "183820.390000", "183820.390000", "183820.406000", "183820.406000", "183820.406000", "183820.406000", "183820.406000", "183820.421000", "183834.468000", "183834.468000", "183834.484000", "183834.484000", "183834.484000", "183834.484000", "183834.484000", "183834.500000", "183834.500000", "183834.500000", "183834.500000", "183834.500000", "183834.515000", "183834.515000"],
      "InstanceNumber": [1, 2, 3, 4, 5, 6, 7, 8, 9, 10, 11, 12, 13, 14, 15, 16, 17, 18, 19, 20, 21, 22, 23, 24, 25, 26, 27, 28, 29, 30, 31, 32, 33, 34, 35, 36, 37, 38, 39, 40, 41, 42, 43, 44, 45, 46, 47, 48, 49, 50, 51, 52, 53, 54, 55, 56, 57, 58, 59, 60, 61, 62, 63, 64, 65, 66, 67, 68, 69, 70, 71, 72, 73, 74, 75, 76, 77, 78, 79, 80, 81, 82, 83, 84, 85, 86, 87, 88, 89, 90, 91, 92, 93, 94, 95, 96, 97, 98, 99, 100, 101, 102, 103, 104, 105, 106, 107, 108, 109, 110, 111, 112, 113, 114, 115, 116, 117, 118, 119, 120, 121, 122, 123, 124, 125, 126, 127, 128, 129, 130, 131, 132, 133, 134, 135, 136, 137, 138, 139, 140, 141, 142, 143, 144, 145, 146, 147, 148, 149, 150, 151, 152, 153, 154, 155, 156, 157, 158, 159, 160, 161, 162, 163, 164, 165, 166, 167, 168, 169, 170, 171, 172, 173, 174, 175, 176, 177, 178, 179, 180, 181, 182, 183, 184, 185, 186, 187, 188, 189, 190, 191, 192, 193, 194, 195, 196, 197, 198, 199, 200, 201, 202, 203, 204, 205, 206, 207, 208, 209, 210, 211, 212, 213, 214, 215, 216, 217, 218, 219, 220, 221, 222, 223, 224, 225, 226, 227, 228, 229, 230, 231, 232, 233, 234, 235, 236, 237, 238, 239, 240, 241, 242, 243, 244, 245, 246, 247, 248, 249, 250, 251, 252, 253, 254, 255, 256, 257, 258, 259, 260, 261, 262, 263, 264, 265, 266, 267, 268, 269, 270, 271, 272, 273, 274, 275, 276, 277, 278, 279, 280, 281, 282, 283, 284, 285, 286, 287, 288, 289, 290, 291, 292, 293, 294, 295, 296, 297, 298, 299, 300, 301, 302, 303, 304, 305, 306, 307, 308, 309, 310, 311, 312, 313, 314, 315, 316, 317, 318, 319, 320, 321, 322, 323, 324, 325],
      "LargestImagePixelValue": [1158, 1138, 1131, 1140, 1131, 1137, 1120, 1132, 1125, 1128, 1129, 1129, 1125, 1134, 1138, 1135, 1125, 1130, 1137, 1132, 1133, 1140, 1124, 1123, 1114, 1140, 1116, 1096, 1111, 1104, 1111, 1111, 1127, 1130, 1128, 1130, 1136, 1137, 1156, 1144, 1150, 1148, 1153, 1148, 1159, 1153, 1147, 1144, 1145, 1146, 1155, 1149, 1146, 1153, 1138, 1146, 1142, 1149, 1139, 1151, 1145, 1141, 1148, 1144, 1135, 1147, 1135, 1129, 1140, 1132, 1141, 1132, 1125, 1131, 1123, 1121, 1124, 1123, 1130, 1121, 1130, 1134, 1130, 1136, 1128, 1139, 1143, 1131, 1147, 1151, 1141, 1134, 1150, 1137, 1138, 1153, 1143, 1127, 1112, 1126, 1100, 1127, 1133, 1109, 1078, 1080, 1093, 1120, 1119, 1111, 1107, 1099, 1092, 1091, 1087, 1097, 1089, 1089, 1076, 1103, 1083, 1085, 1091, 1081, 1082, 1097, 1099, 1096, 1109, 1092, 1091, 1084, 1109, 1107, 1098, 1097, 1083, 1087, 1096, 1100, 1093, 1080, 1095, 1089, 1091, 1084, 1087, 1081, 1086, 1079, 1086, 1079, 1085, 1075, 1079, 1088, 1085, 1088, 1082, 1083, 1075, 1068, 1080, 1076, 1078, 1087, 1097, 1098, 1133, 1119, 1185, 1106, 1119, 1123, 1088, 1084, 1086, 1105, 1116, 1124, 1119, 1118, 1102, 1093, 1106, 1118, 1111, 1104, 1102, 1101, 1094, 1101, 1098, 1099, 1107, 1107, 1087, 1107, 1071, 1084, 1077, 1075, 1099, 1116, 1131, 1123, 1107, 1111, 1120, 1127, 1131, 1144, 1138, 1138, 1138, 1134, 1127, 1135, 1127, 1134, 1142, 1135, 1131, 1125, 1133, 1126, 1121, 1121, 1121, 1120, 1122, 1123, 1117, 1130, 1127, 1120, 1120, 1125, 1131, 1130, 1124, 1122, 1127, 1121, 1123, 1130, 1125, 1120, 1130, 1114, 1116, 1130, 1121, 1130, 1131, 1134, 1127, 1128, 1130, 1123, 1118, 1119, 1122, 1124, 1128, 1110, 1125, 1130, 1130, 1131, 1122, 1129, 1125, 1132, 1123, 1126, 1103, 1104, 1117, 1113, 1118, 1121, 1111, 1122, 1117, 1121, 1116, 1130, 1125, 1133, 1137, 1132, 1138, 1137, 1134, 1141, 1127, 1143, 1140, 1059, 1051, 1068, 1102, 1102, 1055, 1085, 1099, 1083, 1120, 1126, 1137, 1099, 1077, 1089, 1086, 1086, 1104, 1106, 1103, 1116, 1105, 1112, 1117, 1108, 1112],
      "WindowCenter": [501.0, 500.0, 500.0, 499.0, 500.0, 500.0, 500.0, 501.0, 499.0, 500.0, 499.0, 499.0, 500.0, 500.0, 501.0, 501.0, 502.0, 501.0, 502.0, 501.0, 502.0, 502.0, 503.0, 503.0, 504.0, 503.0, 504.0, 503.0, 503.0, 503.0, 503.0, 503.0, 503.0, 502.0, 500.0, 501.0, 499.0, 499.0, 499.0, 498.0, 498.0, 498.0, 497.0, 496.0, 497.0, 496.0, 496.0, 496.0, 497.0, 496.0, 497.0, 497.0, 497.0, 497.0, 497.0, 497.0, 497.0, 498.0, 498.0, 498.0, 497.0, 497.0, 498.0, 499.0, 500.0, 500.0, 499.0, 500.0, 500.0, 500.0, 500.0, 500.0, 499.0, 499.0, 499.0, 500.0, 499.0, 499.0, 499.0, 499.0, 498.0, 499.0, 499.0, 498.0, 498.0, 498.0, 498.0, 497.0, 497.0, 498.0, 497.0, 498.0, 498.0, 498.0, 498.0, 498.0, 499.0, 499.0, 499.0, 499.0, 493.0, 500.0, 501.0, 499.0, 498.0, 496.0, 496.0, 494.0, 492.0, 493.0, 493.0, 494.0, 495.0, 495.0, 495.0, 495.0, 495.0, 497.0, 496.0, 498.0, 497.0, 499.0, 499.0, 498.0, 499.0, 500.0, 498.0, 499.0, 500.0, 498.0, 499.0, 498.0, 498.0, 499.0, 498.0, 498.0, 499.0, 499.0, 500.0, 500.0, 501.0, 500.0, 502.0, 500.0, 500.0, 501.0, 501.0, 501.0, 501.0, 502.0, 501.0, 502.0, 502.0, 502.0, 502.0, 503.0, 503.0, 503.0, 503.0, 502.0, 502.0, 502.0, 501.0, 501.0, 502.0, 500.0, 501.0, 500.0, 502.0, 496.0, 500.0, 496.0, 500.0, 502.0, 495.0, 495.0, 495.0, 496.0, 499.0, 498.0, 499.0, 498.0, 497.0, 495.0, 495.0, 495.0, 495.0, 495.0, 494.0, 494.0, 494.0, 494.0, 494.0, 493.0, 494.0, 495.0, 495.0, 495.0, 496.0, 495.0, 494.0, 495.0, 495.0, 494.0, 495.0, 496.0, 494.0, 494.0, 493.0, 492.0, 492.0, 491.0, 492.0, 491.0, 493.0, 493.0, 493.0, 494.0, 493.0, 494.0, 495.0, 496.0, 496.0, 496.0, 497.0, 497.0, 497.0, 497.0, 496.0, 497.0, 497.0, 497.0, 498.0, 498.0, 498.0, 497.0, 497.0, 498.0, 498.0, 498.0, 499.0, 498.0, 499.0, 499.0, 499.0, 500.0, 499.0, 500.0, 499.0, 500.0, 499.0, 499.0, 498.0, 499.0, 498.0, 499.0, 499.0, 499.0, 499.0, 498.0, 499.0, 498.0, 498.0, 497.0, 497.0, 497.0, 496.0, 497.0, 496.0, 496.0, 498.0, 498.0, 498.0, 499.0, 499.0, 499.0, 500.0, 499.0, 502.0, 500.0, 501.0, 501.0, 500.0, 500.0, 500.0, 498.0, 498.0, 496.0, 495.0, 494.0, 494.0, 493.0, 493.0, 494.0, 493.0, 493.0, 494.0, 494.0, 492.0, 489.0, 489.0, 489.0, 491.0, 491.0, 490.0, 490.0, 491.0, 491.0, 492.0, 495.0, 496.0, 496.0, 495.0, 497.0, 497.0, 497.0, 498.0, 498.0, 498.0, 499.0, 498.0, 498.0, 498.0, 497.0, 498.0],
