{
  "AcquisitionMatrixPE": 64,
  "AcquisitionNumber": 1,
  "AcquisitionTime": "15:05:52.920000",
  "BandwidthPerPixelPhaseEncode": 19.531,
  "BaseResolution": 64,
  "CoilString": "C:HEA;HEP",
  "ConversionSoftware": "dcm2niix",
  "ConversionSoftwareVersion": "v1.0.20190902",
  "DerivedVendorReportedEchoSpacing": 0.00080001,
  "DeviceSerialNumber": "26099",
  "DwellTime": 5.3e-06,
  "EchoTime": 0.0548,
  "EffectiveEchoSpacing": 0.00080001,
  "FlipAngle": 75,
  "ImageComments": "Unaliased_MB4_PE3_LB_SENSE1",
  "ImageOrientationPatientDICOM": [1, -1e-16, 0, 1e-16, 0.919135, -0.393942],
  "ImageType": [
    "ORIGINAL",
    "PRIMARY",
    "M",
    "MB",
    "ND",
    "MOSAIC"
],
  "ImagingFrequency": 63.6393,
  "InPlanePhaseEncodingDirectionDICOM": "COL",
  "InstitutionAddress": "Bedford_Way_26_London_London_GB_WC1H_0AP",
  "InstitutionName": "University_College",
  "InstitutionalDepartmentName": "Department",
  "MRAcquisitionType": "2D",
  "MagneticFieldStrength": 1.5,
  "Manufacturer": "Siemens",
  "ManufacturersModelName": "Avanto",
  "Modality": "MR",
  "MultibandAccelerationFactor": 4,
  "PartialFourier": 1,
  "PatientPosition": "HFS",
  "PercentPhaseFOV": 100,
  "PhaseEncodingDirection": "j-",
  "PhaseEncodingSteps": 64,
  "PhaseResolution": 1,
  "PixelBandwidth": 1474,
  "ProcedureStepDescription": "ucl_bbk_Jeremy",
  "ProtocolName": "EcL4-3.2m-40-1474-1s-55e",
  "PulseSequenceDetails": "%CustomerSeq%_cmrr_mbep2d_bold",
  "ReceiveCoilName": "32Ch_Head",
  "ReconMatrixPE": 64,
  "RepetitionTime": 1,
  "SAR": 0.0419687,
  "ScanOptions": "FS",
  "ScanningSequence": "EP",
  "SequenceName": "epfid2d1_64",
  "SequenceVariant": "SK_SS",
  "SeriesDescription": "EcL4-3.2m-40-1474-1s-55e",
  "SeriesNumber": 7,
  "ShimSetting": [150, -46, 374, 778, -72, 181, -473, 224],
  "SliceThickness": 3.2,
  "SliceTiming": [0, 0.7025, 0.4, 0.1, 0.8025, 0.5, 0.2, 0.9025, 0.6, 0.3, 0, 0.7025, 0.4, 0.1, 0.8025, 0.5, 0.2, 0.9025, 0.6, 0.3, 0, 0.7025, 0.4, 0.1, 0.8025, 0.5, 0.2, 0.9025, 0.6, 0.3, 0, 0.7025, 0.4, 0.1, 0.8025, 0.5, 0.2, 0.9025, 0.6, 0.3],
  "SoftwareVersions": "syngo_MR_B17",
  "SpacingBetweenSlices": 3.2,
  "StationName": "MRC26099",
  "TaskName": "pulpfiction",
  "TotalReadoutTime": 0.0504006,
  "TxRefAmp": 222.724,
  "dcmmeta_affine": [
    [-3.203125, 3.203124970260285e-16, -1.2606139891079536e-16, 102.5],
    [3.203124970260285e-16, 2.944105386734009, -1.260614037513733, -58.64655303955078],
    [0.0, 1.2618451118469238, 2.9412331581115723, -70.51482391357422],
    [0.0, 0.0, 0.0, 1.0]
],
  "dcmmeta_reorient_transform": [
    [0.0, -1.0, 0.0, 63.0],
    [1.0, 0.0, 0.0, 0.0],
    [0.0, 0.0, 1.0, 0.0],
    [0.0, 0.0, 0.0, 1.0]
],
  "dcmmeta_shape": [64, 64, 40, 1677],
  "dcmmeta_slice_dim": 2,
  "dcmmeta_version": 0.6,
  "global": {
    "const": {
      "AcquisitionMatrix": [64, 0, 0, 64],
      "AngioFlag": "N",
      "BitsAllocated": 16,
      "BitsStored": 12,
      "Columns": 448,
      "EchoNumbers": 1,
      "EchoTime": 54.8,
      "EchoTrainLength": 1,
      "FlipAngle": 75.0,
      "HighBit": 11,
      "ImageOrientationPatient": [1.0, -1e-16, 0.0, 1e-16, 0.91913534937679, -0.3939418859756],
      "ImagePositionPatient": [-717.5, -692.10032927282, 251.2556744033],
      "ImageType": [
        "ORIGINAL",
        "PRIMARY",
        "M",
        "MB",
        "ND",
        "MOSAIC"
],
      "ImagedNucleus": "1H",
      "ImagingFrequency": 63.639302,
      "InPlanePhaseEncodingDirection": "COL",
      "MRAcquisitionType": "2D",
      "MagneticFieldStrength": 1.5,
      "Manufacturer": "SIEMENS",
      "ManufacturerModelName": "Avanto",
      "Modality": "MR",
      "NumberOfAverages": 1.0,
      "NumberOfPhaseEncodingSteps": 64,
      "PercentPhaseFieldOfView": 100.0,
      "PercentSampling": 100.0,
      "PerformedProcedureStepStartTime": "134009.562000",
      "PhotometricInterpretation": "MONOCHROME2",
      "PixelBandwidth": 1474.0,
      "PixelRepresentation": 0,
      "PixelSpacing": [3.203125, 3.203125],
      "ProtocolName": "EcL4-3.2m-40-1474-1s-55e",
      "RepetitionTime": 1000.0,
      "Rows": 448,
      "SAR": 0.04196866484057,
      "SamplesPerPixel": 1,
      "ScanOptions": "FS",
      "ScanningSequence": "EP",
      "SequenceName": "epfid2d1_64",
      "SequenceVariant": [
        "SK",
        "SS"
],
      "SeriesDescription": "EcL4-3.2m-40-1474-1s-55e",
      "SeriesNumber": 7,
      "SeriesTime": "150634.781000",
      "SliceLocation": -41.709336922477,
      "SliceThickness": 3.2000000476837,
      "SmallestImagePixelValue": 0,
      "SoftwareVersions": "syngo MR B17",
      "SpacingBetweenSlices": 3.2000000293782,
      "SpecificCharacterSet": "ISO_IR 100",
      "StudyID": "1",
      "StudyTime": "134009.531000",
      "TransmitCoilName": "Body",
      "VariableFlipAngleFlag": "N",
      "WindowCenterWidthExplanation": "Algo1",
      "dBdt": 0.0},
    "slices": {}
  },
  "time": {
    "samples": {
      "AcquisitionNumber": [1, 2, 3, 4, 5, 6, 7, 8, 9, 10, 11, 12, 13, 14, 15, 16, 17, 18, 19, 20, 21, 22, 23, 24, 25, 26, 27, 28, 29, 30, 31, 32, 33, 34, 35, 36, 37, 38, 39, 40, 41, 42, 43, 44, 45, 46, 47, 48, 49, 50, 51, 52, 53, 54, 55, 56, 57, 58, 59, 60, 61, 62, 63, 64, 65, 66, 67, 68, 69, 70, 71, 72, 73, 74, 75, 76, 77, 78, 79, 80, 81, 82, 83, 84, 85, 86, 87, 88, 89, 90, 91, 92, 93, 94, 95, 96, 97, 98, 99, 100, 101, 102, 103, 104, 105, 106, 107, 108, 109, 110, 111, 112, 113, 114, 115, 116, 117, 118, 119, 120, 121, 122, 123, 124, 125, 126, 127, 128, 129, 130, 131, 132, 133, 134, 135, 136, 137, 138, 139, 140, 141, 142, 143, 144, 145, 146, 147, 148, 149, 150, 151, 152, 153, 154, 155, 156, 157, 158, 159, 160, 161, 162, 163, 164, 165, 166, 167, 168, 169, 170, 171, 172, 173, 174, 175, 176, 177, 178, 179, 180, 181, 182, 183, 184, 185, 186, 187, 188, 189, 190, 191, 192, 193, 194, 195, 196, 197, 198, 199, 200, 201, 202, 203, 204, 205, 206, 207, 208, 209, 210, 211, 212, 213, 214, 215, 216, 217, 218, 219, 220, 221, 222, 223, 224, 225, 226, 227, 228, 229, 230, 231, 232, 233, 234, 235, 236, 237, 238, 239, 240, 241, 242, 243, 244, 245, 246, 247, 248, 249, 250, 251, 252, 253, 254, 255, 256, 257, 258, 259, 260, 261, 262, 263, 264, 265, 266, 267, 268, 269, 270, 271, 272, 273, 274, 275, 276, 277, 278, 279, 280, 281, 282, 283, 284, 285, 286, 287, 288, 289, 290, 291, 292, 293, 294, 295, 296, 297, 298, 299, 300, 301, 302, 303, 304, 305, 306, 307, 308, 309, 310, 311, 312, 313, 314, 315, 316, 317, 318, 319, 320, 321, 322, 323, 324, 325, 326, 327, 328, 329, 330, 331, 332, 333, 334, 335, 336, 337, 338, 339, 340, 341, 342, 343, 344, 345, 346, 347, 348, 349, 350, 351, 352, 353, 354, 355, 356, 357, 358, 359, 360, 361, 362, 363, 364, 365, 366, 367, 368, 369, 370, 371, 372, 373, 374, 375, 376, 377, 378, 379, 380, 381, 382, 383, 384, 385, 386, 387, 388, 389, 390, 391, 392, 393, 394, 395, 396, 397, 398, 399, 400, 401, 402, 403, 404, 405, 406, 407, 408, 409, 410, 411, 412, 413, 414, 415, 416, 417, 418, 419, 420, 421, 422, 423, 424, 425, 426, 427, 428, 429, 430, 431, 432, 433, 434, 435, 436, 437, 438, 439, 440, 441, 442, 443, 444, 445, 446, 447, 448, 449, 450, 451, 452, 453, 454, 455, 456, 457, 458, 459, 460, 461, 462, 463, 464, 465, 466, 467, 468, 469, 470, 471, 472, 473, 474, 475, 476, 477, 478, 479, 480, 481, 482, 483, 484, 485, 486, 487, 488, 489, 490, 491, 492, 493, 494, 495, 496, 497, 498, 499, 500, 501, 502, 503, 504, 505, 506, 507, 508, 509, 510, 511, 512, 513, 514, 515, 516, 517, 518, 519, 520, 521, 522, 523, 524, 525, 526, 527, 528, 529, 530, 531, 532, 533, 534, 535, 536, 537, 538, 539, 540, 541, 542, 543, 544, 545, 546, 547, 548, 549, 550, 551, 552, 553, 554, 555, 556, 557, 558, 559, 560, 561, 562, 563, 564, 565, 566, 567, 568, 569, 570, 571, 572, 573, 574, 575, 576, 577, 578, 579, 580, 581, 582, 583, 584, 585, 586, 587, 588, 589, 590, 591, 592, 593, 594, 595, 596, 597, 598, 599, 600, 601, 602, 603, 604, 605, 606, 607, 608, 609, 610, 611, 612, 613, 614, 615, 616, 617, 618, 619, 620, 621, 622, 623, 624, 625, 626, 627, 628, 629, 630, 631, 632, 633, 634, 635, 636, 637, 638, 639, 640, 641, 642, 643, 644, 645, 646, 647, 648, 649, 650, 651, 652, 653, 654, 655, 656, 657, 658, 659, 660, 661, 662, 663, 664, 665, 666, 667, 668, 669, 670, 671, 672, 673, 674, 675, 676, 677, 678, 679, 680, 681, 682, 683, 684, 685, 686, 687, 688, 689, 690, 691, 692, 693, 694, 695, 696, 697, 698, 699, 700, 701, 702, 703, 704, 705, 706, 707, 708, 709, 710, 711, 712, 713, 714, 715, 716, 717, 718, 719, 720, 721, 722, 723, 724, 725, 726, 727, 728, 729, 730, 731, 732, 733, 734, 735, 736, 737, 738, 739, 740, 741, 742, 743, 744, 745, 746, 747, 748, 749, 750, 751, 752, 753, 754, 755, 756, 757, 758, 759, 760, 761, 762, 763, 764, 765, 766, 767, 768, 769, 770, 771, 772, 773, 774, 775, 776, 777, 778, 779, 780, 781, 782, 783, 784, 785, 786, 787, 788, 789, 790, 791, 792, 793, 794, 795, 796, 797, 798, 799, 800, 801, 802, 803, 804, 805, 806, 807, 808, 809, 810, 811, 812, 813, 814, 815, 816, 817, 818, 819, 820, 821, 822, 823, 824, 825, 826, 827, 828, 829, 830, 831, 832, 833, 834, 835, 836, 837, 838, 839, 840, 841, 842, 843, 844, 845, 846, 847, 848, 849, 850, 851, 852, 853, 854, 855, 856, 857, 858, 859, 860, 861, 862, 863, 864, 865, 866, 867, 868, 869, 870, 871, 872, 873, 874, 875, 876, 877, 878, 879, 880, 881, 882, 883, 884, 885, 886, 887, 888, 889, 890, 891, 892, 893, 894, 895, 896, 897, 898, 899, 900, 901, 902, 903, 904, 905, 906, 907, 908, 909, 910, 911, 912, 913, 914, 915, 916, 917, 918, 919, 920, 921, 922, 923, 924, 925, 926, 927, 928, 929, 930, 931, 932, 933, 934, 935, 936, 937, 938, 939, 940, 941, 942, 943, 944, 945, 946, 947, 948, 949, 950, 951, 952, 953, 954, 955, 956, 957, 958, 959, 960, 961, 962, 963, 964, 965, 966, 967, 968, 969, 970, 971, 972, 973, 974, 975, 976, 977, 978, 979, 980, 981, 982, 983, 984, 985, 986, 987, 988, 989, 990, 991, 992, 993, 994, 995, 996, 997, 998, 999, 1000, 1001, 1002, 1003, 1004, 1005, 1006, 1007, 1008, 1009, 1010, 1011, 1012, 1013, 1014, 1015, 1016, 1017, 1018, 1019, 1020, 1021, 1022, 1023, 1024, 1025, 1026, 1027, 1028, 1029, 1030, 1031, 1032, 1033, 1034, 1035, 1036, 1037, 1038, 1039, 1040, 1041, 1042, 1043, 1044, 1045, 1046, 1047, 1048, 1049, 1050, 1051, 1052, 1053, 1054, 1055, 1056, 1057, 1058, 1059, 1060, 1061, 1062, 1063, 1064, 1065, 1066, 1067, 1068, 1069, 1070, 1071, 1072, 1073, 1074, 1075, 1076, 1077, 1078, 1079, 1080, 1081, 1082, 1083, 1084, 1085, 1086, 1087, 1088, 1089, 1090, 1091, 1092, 1093, 1094, 1095, 1096, 1097, 1098, 1099, 1100, 1101, 1102, 1103, 1104, 1105, 1106, 1107, 1108, 1109, 1110, 1111, 1112, 1113, 1114, 1115, 1116, 1117, 1118, 1119, 1120, 1121, 1122, 1123, 1124, 1125, 1126, 1127, 1128, 1129, 1130, 1131, 1132, 1133, 1134, 1135, 1136, 1137, 1138, 1139, 1140, 1141, 1142, 1143, 1144, 1145, 1146, 1147, 1148, 1149, 1150, 1151, 1152, 1153, 1154, 1155, 1156, 1157, 1158, 1159, 1160, 1161, 1162, 1163, 1164, 1165, 1166, 1167, 1168, 1169, 1170, 1171, 1172, 1173, 1174, 1175, 1176, 1177, 1178, 1179, 1180, 1181, 1182, 1183, 1184, 1185, 1186, 1187, 1188, 1189, 1190, 1191, 1192, 1193, 1194, 1195, 1196, 1197, 1198, 1199, 1200, 1201, 1202, 1203, 1204, 1205, 1206, 1207, 1208, 1209, 1210, 1211, 1212, 1213, 1214, 1215, 1216, 1217, 1218, 1219, 1220, 1221, 1222, 1223, 1224, 1225, 1226, 1227, 1228, 1229, 1230, 1231, 1232, 1233, 1234, 1235, 1236, 1237, 1238, 1239, 1240, 1241, 1242, 1243, 1244, 1245, 1246, 1247, 1248, 1249, 1250, 1251, 1252, 1253, 1254, 1255, 1256, 1257, 1258, 1259, 1260, 1261, 1262, 1263, 1264, 1265, 1266, 1267, 1268, 1269, 1270, 1271, 1272, 1273, 1274, 1275, 1276, 1277, 1278, 1279, 1280, 1281, 1282, 1283, 1284, 1285, 1286, 1287, 1288, 1289, 1290, 1291, 1292, 1293, 1294, 1295, 1296, 1297, 1298, 1299, 1300, 1301, 1302, 1303, 1304, 1305, 1306, 1307, 1308, 1309, 1310, 1311, 1312, 1313, 1314, 1315, 1316, 1317, 1318, 1319, 1320, 1321, 1322, 1323, 1324, 1325, 1326, 1327, 1328, 1329, 1330, 1331, 1332, 1333, 1334, 1335, 1336, 1337, 1338, 1339, 1340, 1341, 1342, 1343, 1344, 1345, 1346, 1347, 1348, 1349, 1350, 1351, 1352, 1353, 1354, 1355, 1356, 1357, 1358, 1359, 1360, 1361, 1362, 1363, 1364, 1365, 1366, 1367, 1368, 1369, 1370, 1371, 1372, 1373, 1374, 1375, 1376, 1377, 1378, 1379, 1380, 1381, 1382, 1383, 1384, 1385, 1386, 1387, 1388, 1389, 1390, 1391, 1392, 1393, 1394, 1395, 1396, 1397, 1398, 1399, 1400, 1401, 1402, 1403, 1404, 1405, 1406, 1407, 1408, 1409, 1410, 1411, 1412, 1413, 1414, 1415, 1416, 1417, 1418, 1419, 1420, 1421, 1422, 1423, 1424, 1425, 1426, 1427, 1428, 1429, 1430, 1431, 1432, 1433, 1434, 1435, 1436, 1437, 1438, 1439, 1440, 1441, 1442, 1443, 1444, 1445, 1446, 1447, 1448, 1449, 1450, 1451, 1452, 1453, 1454, 1455, 1456, 1457, 1458, 1459, 1460, 1461, 1462, 1463, 1464, 1465, 1466, 1467, 1468, 1469, 1470, 1471, 1472, 1473, 1474, 1475, 1476, 1477, 1478, 1479, 1480, 1481, 1482, 1483, 1484, 1485, 1486, 1487, 1488, 1489, 1490, 1491, 1492, 1493, 1494, 1495, 1496, 1497, 1498, 1499, 1500, 1501, 1502, 1503, 1504, 1505, 1506, 1507, 1508, 1509, 1510, 1511, 1512, 1513, 1514, 1515, 1516, 1517, 1518, 1519, 1520, 1521, 1522, 1523, 1524, 1525, 1526, 1527, 1528, 1529, 1530, 1531, 1532, 1533, 1534, 1535, 1536, 1537, 1538, 1539, 1540, 1541, 1542, 1543, 1544, 1545, 1546, 1547, 1548, 1549, 1550, 1551, 1552, 1553, 1554, 1555, 1556, 1557, 1558, 1559, 1560, 1561, 1562, 1563, 1564, 1565, 1566, 1567, 1568, 1569, 1570, 1571, 1572, 1573, 1574, 1575, 1576, 1577, 1578, 1579, 1580, 1581, 1582, 1583, 1584, 1585, 1586, 1587, 1588, 1589, 1590, 1591, 1592, 1593, 1594, 1595, 1596, 1597, 1598, 1599, 1600, 1601, 1602, 1603, 1604, 1605, 1606, 1607, 1608, 1609, 1610, 1611, 1612, 1613, 1614, 1615, 1616, 1617, 1618, 1619, 1620, 1621, 1622, 1623, 1624, 1625, 1626, 1627, 1628, 1629, 1630, 1631, 1632, 1633, 1634, 1635, 1636, 1637, 1638, 1639, 1640, 1641, 1642, 1643, 1644, 1645, 1646, 1647, 1648, 1649, 1650, 1651, 1652, 1653, 1654, 1655, 1656, 1657, 1658, 1659, 1660, 1661, 1662, 1663, 1664, 1665, 1666, 1667, 1668, 1669, 1670, 1671, 1672, 1673, 1674, 1675, 1676, 1677],
      "AcquisitionTime": ["150552.920000", "150553.922500", "150554.927500", "150555.930000", "150556.935000", "150557.940000", "150558.942500", "150559.947500", "150600.950000", "150601.955000", "150602.960000", "150603.962500", "150604.967500", "150605.970000", "150606.975000", "150607.980000", "150608.982500", "150609.987500", "150610.990000", "150611.995000", "150613.000000", "150614.002500", "150615.007500", "150616.010000", "150617.015000", "150618.020000", "150619.022500", "150620.027500", "150621.032500", "150622.035000", "150623.040000", "150624.042500", "150625.047500", "150626.052500", "150627.055000", "150628.060000", "150629.062500", "150630.067500", "150631.072500", "150632.075000", "150633.080000", "150634.082500", "150635.087500", "150636.092500", "150637.095000", "150638.100000", "150639.102500", "150640.107500", "150641.112500", "150642.115000", "150643.120000", "150644.122500", "150645.127500", "150646.132500", "150647.135000", "150648.140000", "150649.142500", "150650.147500", "150651.152500", "150652.155000", "150653.160000", "150654.165000", "150655.167500", "150656.172500", "150657.175000", "150658.180000", "150659.185000", "150700.187500", "150701.192500", "150702.195000", "150703.200000", "150704.205000", "150705.207500", "150706.212500", "150707.215000", "150708.220000", "150709.225000", "150710.227500", "150711.232500", "150712.235000", "150713.240000", "150714.245000", "150715.247500", "150716.252500", "150717.255000", "150718.260000", "150719.265000", "150720.267500", "150721.272500", "150722.277500", "150723.280000", "150724.285000", "150725.287500", "150726.292500", "150727.297500", "150728.300000", "150729.305000", "150730.307500", "150731.312500", "150732.317500", "150733.320000", "150734.325000", "150735.327500", "150736.332500", "150737.337500", "150738.340000", "150739.345000", "150740.347500", "150741.352500", "150742.357500", "150743.360000", "150744.365000", "150745.367500", "150746.372500", "150747.377500", "150748.380000", "150749.385000", "150750.387500", "150751.392500", "150752.397500", "150753.400000", "150754.405000", "150755.410000", "150756.412500", "150757.417500", "150758.420000", "150759.425000", "150800.430000", "150801.432500", "150802.437500", "150803.440000", "150804.445000", "150805.450000", "150806.452500", "150807.457500", "150808.460000", "150809.465000", "150810.470000", "150811.472500", "150812.477500", "150813.480000", "150814.485000", "150815.490000", "150816.492500", "150817.497500", "150818.500000", "150819.505000", "150820.510000", "150821.512500", "150822.517500", "150823.520000", "150824.525000", "150825.530000", "150826.532500", "150827.537500", "150828.542500", "150829.545000", "150830.550000", "150831.552500", "150832.557500", "150833.562500", "150834.565000", "150835.570000", "150836.572500", "150837.577500", "150838.582500", "150839.585000", "150840.590000", "150841.592500", "150842.597500", "150843.602500", "150844.605000", "150845.610000", "150846.612500", "150847.617500", "150848.622500", "150849.625000", "150850.630000", "150851.632500", "150852.637500", "150853.642500", "150854.645000", "150855.650000", "150856.655000", "150857.657500", "150858.662500", "150859.665000", "150900.670000", "150901.675000", "150902.677500", "150903.682500", "150904.685000", "150905.690000", "150906.695000", "150907.697500", "150908.702500", "150909.705000", "150910.710000", "150911.715000", "150912.717500", "150913.722500", "150914.725000", "150915.730000", "150916.735000", "150917.737500", "150918.742500", "150919.745000", "150920.750000", "150921.755000", "150922.757500", "150923.762500", "150924.765000", "150925.770000", "150926.775000", "150927.777500", "150928.782500", "150929.787500", "150930.790000", "150931.795000", "150932.797500", "150933.802500", "150934.807500", "150935.810000", "150936.815000", "150937.817500", "150938.822500", "150939.827500", "150940.830000", "150941.835000", "150942.837500", "150943.842500", "150944.847500", "150945.850000", "150946.855000", "150947.857500", "150948.862500", "150949.867500", "150950.870000", "150951.875000", "150952.877500", "150953.882500", "150954.887500", "150955.890000", "150956.895000", "150957.897500", "150958.902500", "150959.907500", "151000.910000", "151001.915000", "151002.920000", "151003.922500", "151004.927500", "151005.930000", "151006.935000", "151007.940000", "151008.942500", "151009.947500", "151010.950000", "151011.955000", "151012.960000", "151013.962500", "151014.967500", "151015.970000", "151016.975000", "151017.980000", "151018.982500", "151019.987500", "151020.990000", "151021.995000", "151023.000000", "151024.002500", "151025.007500", "151026.010000", "151027.015000", "151028.020000", "151029.022500", "151030.027500", "151031.032500", "151032.035000", "151033.040000", "151034.042500", "151035.047500", "151036.052500", "151037.055000", "151038.060000", "151039.062500", "151040.067500", "151041.072500", "151042.075000", "151043.080000", "151044.082500", "151045.087500", "151046.092500", "151047.095000", "151048.100000", "151049.102500", "151050.107500", "151051.112500", "151052.115000", "151053.120000", "151054.122500", "151055.127500", "151056.132500", "151057.135000", "151058.140000", "151059.142500", "151100.147500", "151101.152500", "151102.155000", "151103.160000", "151104.165000", "151105.167500", "151106.172500", "151107.175000", "151108.180000", "151109.185000", "151110.187500", "151111.192500", "151112.195000", "151113.200000", "151114.205000", "151115.207500", "151116.212500", "151117.215000", "151118.220000", "151119.225000", "151120.227500", "151121.232500", "151122.235000", "151123.240000", "151124.245000", "151125.247500", "151126.252500", "151127.255000", "151128.260000", "151129.265000", "151130.267500", "151131.272500", "151132.277500", "151133.280000", "151134.285000", "151135.287500", "151136.292500", "151137.297500", "151138.300000", "151139.305000", "151140.307500", "151141.312500", "151142.317500", "151143.320000", "151144.325000", "151145.327500", "151146.332500", "151147.337500", "151148.340000", "151149.345000", "151150.347500", "151151.352500", "151152.357500", "151153.360000", "151154.365000", "151155.367500", "151156.372500", "151157.377500", "151158.380000", "151159.385000", "151200.387500", "151201.392500", "151202.397500", "151203.400000", "151204.405000", "151205.410000", "151206.412500", "151207.417500", "151208.420000", "151209.425000", "151210.430000", "151211.432500", "151212.437500", "151213.440000", "151214.445000", "151215.450000", "151216.452500", "151217.457500", "151218.460000", "151219.465000", "151220.470000", "151221.472500", "151222.477500", "151223.480000", "151224.485000", "151225.490000", "151226.492500", "151227.497500", "151228.500000", "151229.505000", "151230.510000", "151231.512500", "151232.517500", "151233.520000", "151234.525000", "151235.530000", "151236.532500", "151237.537500", "151238.542500", "151239.545000", "151240.550000", "151241.552500", "151242.557500", "151243.562500", "151244.565000", "151245.570000", "151246.572500", "151247.577500", "151248.582500", "151249.585000", "151250.590000", "151251.592500", "151252.597500", "151253.602500", "151254.605000", "151255.610000", "151256.612500", "151257.617500", "151258.622500", "151259.625000", "151300.630000", "151301.632500", "151302.637500", "151303.642500", "151304.645000", "151305.650000", "151306.655000", "151307.657500", "151308.662500", "151309.665000", "151310.670000", "151311.675000", "151312.677500", "151313.682500", "151314.685000", "151315.690000", "151316.695000", "151317.697500", "151318.702500", "151319.705000", "151320.710000", "151321.715000", "151322.717500", "151323.722500", "151324.725000", "151325.730000", "151326.735000", "151327.737500", "151328.742500", "151329.745000", "151330.750000", "151331.755000", "151332.757500", "151333.762500", "151334.765000", "151335.770000", "151336.775000", "151337.777500", "151338.782500", "151339.787500", "151340.790000", "151341.795000", "151342.797500", "151343.802500", "151344.807500", "151345.810000", "151346.815000", "151347.817500", "151348.822500", "151349.827500", "151350.830000", "151351.835000", "151352.837500", "151353.842500", "151354.847500", "151355.850000", "151356.855000", "151357.857500", "151358.862500", "151359.867500", "151400.870000", "151401.875000", "151402.877500", "151403.882500", "151404.887500", "151405.890000", "151406.895000", "151407.897500", "151408.902500", "151409.907500", "151410.910000", "151411.915000", "151412.920000", "151413.922500", "151414.927500", "151415.930000", "151416.935000", "151417.940000", "151418.942500", "151419.947500", "151420.950000", "151421.955000", "151422.960000", "151423.962500", "151424.967500", "151425.970000", "151426.975000", "151427.980000", "151428.982500", "151429.987500", "151430.990000", "151431.995000", "151433.000000", "151434.002500", "151435.007500", "151436.010000", "151437.015000", "151438.020000", "151439.022500", "151440.027500", "151441.032500", "151442.035000", "151443.040000", "151444.042500", "151445.047500", "151446.052500", "151447.055000", "151448.060000", "151449.062500", "151450.067500", "151451.072500", "151452.075000", "151453.080000", "151454.082500", "151455.087500", "151456.092500", "151457.095000", "151458.100000", "151459.102500", "151500.107500", "151501.112500", "151502.115000", "151503.120000", "151504.122500", "151505.127500", "151506.132500", "151507.135000", "151508.140000", "151509.142500", "151510.147500", "151511.152500", "151512.155000", "151513.160000", "151514.165000", "151515.167500", "151516.172500", "151517.175000", "151518.180000", "151519.185000", "151520.187500", "151521.192500", "151522.195000", "151523.200000", "151524.205000", "151525.207500", "151526.212500", "151527.215000", "151528.220000", "151529.225000", "151530.227500", "151531.232500", "151532.235000", "151533.240000", "151534.245000", "151535.247500", "151536.252500", "151537.255000", "151538.260000", "151539.265000", "151540.267500", "151541.272500", "151542.277500", "151543.280000", "151544.285000", "151545.287500", "151546.292500", "151547.297500", "151548.300000", "151549.305000", "151550.307500", "151551.312500", "151552.317500", "151553.320000", "151554.325000", "151555.327500", "151556.332500", "151557.337500", "151558.340000", "151559.345000", "151600.347500", "151601.352500", "151602.357500", "151603.360000", "151604.365000", "151605.367500", "151606.372500", "151607.377500", "151608.380000", "151609.385000", "151610.387500", "151611.392500", "151612.397500", "151613.400000", "151614.405000", "151615.410000", "151616.412500", "151617.417500", "151618.420000", "151619.425000", "151620.430000", "151621.432500", "151622.437500", "151623.440000", "151624.445000", "151625.450000", "151626.452500", "151627.457500", "151628.460000", "151629.465000", "151630.470000", "151631.472500", "151632.477500", "151633.480000", "151634.485000", "151635.490000", "151636.492500", "151637.497500", "151638.500000", "151639.505000", "151640.510000", "151641.512500", "151642.517500", "151643.520000", "151644.525000", "151645.530000", "151646.532500", "151647.537500", "151648.542500", "151649.545000", "151650.550000", "151651.552500", "151652.557500", "151653.562500", "151654.565000", "151655.570000", "151656.572500", "151657.577500", "151658.582500", "151659.585000", "151700.590000", "151701.592500", "151702.597500", "151703.602500", "151704.605000", "151705.610000", "151706.612500", "151707.617500", "151708.622500", "151709.625000", "151710.630000", "151711.632500", "151712.637500", "151713.642500", "151714.645000", "151715.650000", "151716.655000", "151717.657500", "151718.662500", "151719.665000", "151720.670000", "151721.675000", "151722.677500", "151723.682500", "151724.685000", "151725.690000", "151726.695000", "151727.697500", "151728.702500", "151729.705000", "151730.710000", "151731.715000", "151732.717500", "151733.722500", "151734.725000", "151735.730000", "151736.735000", "151737.737500", "151738.742500", "151739.745000", "151740.750000", "151741.755000", "151742.757500", "151743.762500", "151744.765000", "151745.770000", "151746.775000", "151747.777500", "151748.782500", "151749.787500", "151750.790000", "151751.795000", "151752.797500", "151753.802500", "151754.807500", "151755.810000", "151756.815000", "151757.817500", "151758.822500", "151759.827500", "151800.830000", "151801.835000", "151802.837500", "151803.842500", "151804.847500", "151805.850000", "151806.855000", "151807.857500", "151808.862500", "151809.867500", "151810.870000", "151811.875000", "151812.877500", "151813.882500", "151814.887500", "151815.890000", "151816.895000", "151817.897500", "151818.902500", "151819.907500", "151820.910000", "151821.915000", "151822.920000", "151823.922500", "151824.927500", "151825.930000", "151826.935000", "151827.940000", "151828.942500", "151829.947500", "151830.950000", "151831.955000", "151832.960000", "151833.962500", "151834.967500", "151835.970000", "151836.975000", "151837.980000", "151838.982500", "151839.987500", "151840.990000", "151841.995000", "151843.000000", "151844.002500", "151845.007500", "151846.010000", "151847.015000", "151848.020000", "151849.022500", "151850.027500", "151851.032500", "151852.035000", "151853.040000", "151854.042500", "151855.047500", "151856.052500", "151857.055000", "151858.060000", "151859.062500", "151900.067500", "151901.072500", "151902.075000", "151903.080000", "151904.082500", "151905.087500", "151906.092500", "151907.095000", "151908.100000", "151909.102500", "151910.107500", "151911.112500", "151912.115000", "151913.120000", "151914.122500", "151915.127500", "151916.132500", "151917.135000", "151918.140000", "151919.142500", "151920.147500", "151921.152500", "151922.155000", "151923.160000", "151924.165000", "151925.167500", "151926.172500", "151927.175000", "151928.180000", "151929.185000", "151930.187500", "151931.192500", "151932.195000", "151933.200000", "151934.205000", "151935.207500", "151936.212500", "151937.215000", "151938.220000", "151939.225000", "151940.227500", "151941.232500", "151942.235000", "151943.240000", "151944.245000", "151945.247500", "151946.252500", "151947.255000", "151948.260000", "151949.265000", "151950.267500", "151951.272500", "151952.277500", "151953.280000", "151954.285000", "151955.287500", "151956.292500", "151957.297500", "151958.300000", "151959.305000", "152000.307500", "152001.312500", "152002.317500", "152003.320000", "152004.325000", "152005.327500", "152006.332500", "152007.337500", "152008.340000", "152009.345000", "152010.347500", "152011.352500", "152012.357500", "152013.360000", "152014.365000", "152015.367500", "152016.372500", "152017.377500", "152018.380000", "152019.385000", "152020.387500", "152021.392500", "152022.397500", "152023.400000", "152024.405000", "152025.410000", "152026.412500", "152027.417500", "152028.420000", "152029.425000", "152030.430000", "152031.432500", "152032.437500", "152033.440000", "152034.445000", "152035.450000", "152036.452500", "152037.457500", "152038.460000", "152039.465000", "152040.470000", "152041.472500", "152042.477500", "152043.480000", "152044.485000", "152045.490000", "152046.492500", "152047.497500", "152048.500000", "152049.505000", "152050.510000", "152051.512500", "152052.517500", "152053.520000", "152054.525000", "152055.530000", "152056.532500", "152057.537500", "152058.542500", "152059.545000", "152100.550000", "152101.552500", "152102.557500", "152103.562500", "152104.565000", "152105.570000", "152106.572500", "152107.577500", "152108.582500", "152109.585000", "152110.590000", "152111.592500", "152112.597500", "152113.602500", "152114.605000", "152115.610000", "152116.612500", "152117.617500", "152118.622500", "152119.625000", "152120.630000", "152121.632500", "152122.637500", "152123.642500", "152124.645000", "152125.650000", "152126.655000", "152127.657500", "152128.662500", "152129.665000", "152130.670000", "152131.675000", "152132.677500", "152133.682500", "152134.685000", "152135.690000", "152136.695000", "152137.697500", "152138.702500", "152139.705000", "152140.710000", "152141.715000", 