{
  "AcquisitionMatrixPE": 64,
  "AcquisitionNumber": 1,
  "AcquisitionTime": "18:08:48.047500",
  "BandwidthPerPixelPhaseEncode": 19.531,
  "BaseResolution": 64,
  "CoilString": "C:HEA;HEP",
  "ConversionSoftware": "dcm2niix",
  "ConversionSoftwareVersion": "v1.0.20190902",
  "DerivedVendorReportedEchoSpacing": 0.00080001,
  "DeviceSerialNumber": "26099",
  "DwellTime": 5.3e-06,
  "EchoTime": 0.0548,
  "EffectiveEchoSpacing": 0.00080001,
  "FlipAngle": 75,
  "ImageComments": "Unaliased_MB4_PE3_LB_SENSE1",
  "ImageOrientationPatientDICOM": [1, 2e-16, 0, -2e-16, 0.950516, -0.310676],
  "ImageType": [
    "ORIGINAL",
    "PRIMARY",
    "M",
    "MB",
    "ND",
    "MOSAIC"
],
  "ImagingFrequency": 63.6394,
  "InPlanePhaseEncodingDirectionDICOM": "COL",
  "InstitutionAddress": "Bedford_Way_26_London_London_GB_WC1H_0AP",
  "InstitutionName": "University_College",
  "InstitutionalDepartmentName": "Department",
  "MRAcquisitionType": "2D",
  "MagneticFieldStrength": 1.5,
  "Manufacturer": "Siemens",
  "ManufacturersModelName": "Avanto",
  "Modality": "MR",
  "MultibandAccelerationFactor": 4,
  "PartialFourier": 1,
  "PatientPosition": "HFS",
  "PercentPhaseFOV": 100,
  "PhaseEncodingDirection": "j-",
  "PhaseEncodingSteps": 64,
  "PhaseResolution": 1,
  "PixelBandwidth": 1474,
  "ProcedureStepDescription": "ucl_bbk_Jeremy",
  "ProtocolName": "EcL4-3.2m-40-1474-1s-55e",
  "PulseSequenceDetails": "%CustomerSeq%_cmrr_mbep2d_bold",
  "ReceiveCoilName": "32Ch_Head",
  "ReconMatrixPE": 64,
  "RepetitionTime": 1,
  "SAR": 0.0422635,
  "ScanOptions": "FS",
  "ScanningSequence": "EP",
  "SequenceName": "epfid2d1_64",
  "SequenceVariant": "SK_SS",
  "SeriesDescription": "EcL4-3.2m-40-1474-1s-55e",
  "SeriesNumber": 7,
  "ShimSetting": [155, -19, 396, 926, -380, 286, -255, 191],
  "SliceThickness": 3.2,
  "SliceTiming": [0, 0.7025, 0.4025, 0.1025, 0.805, 0.5025, 0.2025, 0.905, 0.6025, 0.3025, 0, 0.7025, 0.4025, 0.1025, 0.805, 0.5025, 0.2025, 0.905, 0.6025, 0.3025, 0, 0.7025, 0.4025, 0.1025, 0.805, 0.5025, 0.2025, 0.905, 0.6025, 0.3025, 0, 0.7025, 0.4025, 0.1025, 0.805, 0.5025, 0.2025, 0.905, 0.6025, 0.3025],
  "SoftwareVersions": "syngo_MR_B17",
  "SpacingBetweenSlices": 3.2,
  "StationName": "MRC26099",
  "TaskName": "split",
  "TotalReadoutTime": 0.0504006,
  "TxRefAmp": 220.892,
  "dcmmeta_affine": [
    [-3.203125, -6.40624994052057e-16, 1.9883291108516849e-16, 102.5],
    [-6.40624994052057e-16, 3.0446207523345947, -0.9941645860671997, -66.95829010009766],
    [0.0, 0.9951354265213013, 3.0416505336761475, -55.39140319824219],
    [0.0, 0.0, 0.0, 1.0]
],
  "dcmmeta_reorient_transform": [
    [0.0, -1.0, 0.0, 63.0],
    [1.0, 0.0, 0.0, 0.0],
    [0.0, 0.0, 1.0, 0.0],
    [0.0, 0.0, 0.0, 1.0]
],
  "dcmmeta_shape": [64, 64, 40, 1652],
  "dcmmeta_slice_dim": 2,
  "dcmmeta_version": 0.6,
  "global": {
    "const": {
      "AcquisitionMatrix": [64, 0, 0, 64],
      "AngioFlag": "N",
      "BitsAllocated": 16,
      "BitsStored": 12,
      "Columns": 448,
      "EchoNumbers": 1,
      "EchoTime": 54.8,
      "EchoTrainLength": 1,
      "FlipAngle": 75.0,
      "HighBit": 11,
      "ImageOrientationPatient": [1.0, 2e-16, 0.0, -2e-16, 0.95051573489763, -0.3106764196266],
      "ImagePositionPatient": [-717.5, -709.41998943505, 198.36812527156],
      "ImageType": [
        "ORIGINAL",
        "PRIMARY",
        "M",
        "MB",
        "ND",
        "MOSAIC"
],
      "ImagedNucleus": "1H",
      "ImagingFrequency": 63.639414,
      "InPlanePhaseEncodingDirection": "COL",
      "MRAcquisitionType": "2D",
      "MagneticFieldStrength": 1.5,
      "Manufacturer": "SIEMENS",
      "ManufacturerModelName": "Avanto",
      "Modality": "MR",
      "NumberOfAverages": 1.0,
      "NumberOfPhaseEncodingSteps": 64,
      "PercentPhaseFieldOfView": 100.0,
      "PercentSampling": 100.0,
      "PerformedProcedureStepStartTime": "171714.359000",
      "PhotometricInterpretation": "MONOCHROME2",
      "PixelBandwidth": 1474.0,
      "PixelRepresentation": 0,
      "PixelSpacing": [3.203125, 3.203125],
      "ProtocolName": "EcL4-3.2m-40-1474-1s-55e",
      "RepetitionTime": 1000.0,
      "Rows": 448,
      "SAR": 0.04226353441196,
      "SamplesPerPixel": 1,
      "ScanOptions": "FS",
      "ScanningSequence": "EP",
      "SequenceName": "epfid2d1_64",
      "SequenceVariant": [
        "SK",
        "SS"
],
      "SeriesDescription": "EcL4-3.2m-40-1474-1s-55e",
      "SeriesNumber": 7,
      "SeriesTime": "180930.625000",
      "SliceLocation": -31.848037956479,
      "SliceThickness": 3.2000000476837,
      "SmallestImagePixelValue": 0,
      "SoftwareVersions": "syngo MR B17",
      "SpacingBetweenSlices": 3.2000000810072,
      "SpecificCharacterSet": "ISO_IR 100",
      "StudyID": "1",
      "StudyTime": "171713.437000",
      "TransmitCoilName": "Body",
      "VariableFlipAngleFlag": "N",
      "WindowCenterWidthExplanation": "Algo1",
      "dBdt": 0.0},
    "slices": {}
  },
  "time": {
    "samples": {
      "AcquisitionNumber": [1, 2, 3, 4, 5, 6, 7, 8, 9, 10, 11, 12, 13, 14, 15, 16, 17, 18, 19, 20, 21, 22, 23, 24, 25, 26, 27, 28, 29, 30, 31, 32, 33, 34, 35, 36, 37, 38, 39, 40, 41, 42, 43, 44, 45, 46, 47, 48, 49, 50, 51, 52, 53, 54, 55, 56, 57, 58, 59, 60, 61, 62, 63, 64, 65, 66, 67, 68, 69, 70, 71, 72, 73, 74, 75, 76, 77, 78, 79, 80, 81, 82, 83, 84, 85, 86, 87, 88, 89, 90, 91, 92, 93, 94, 95, 96, 97, 98, 99, 100, 101, 102, 103, 104, 105, 106, 107, 108, 109, 110, 111, 112, 113, 114, 115, 116, 117, 118, 119, 120, 121, 122, 123, 124, 125, 126, 127, 128, 129, 130, 131, 132, 133, 134, 135, 136, 137, 138, 139, 140, 141, 142, 143, 144, 145, 146, 147, 148, 149, 150, 151, 152, 153, 154, 155, 156, 157, 158, 159, 160, 161, 162, 163, 164, 165, 166, 167, 168, 169, 170, 171, 172, 173, 174, 175, 176, 177, 178, 179, 180, 181, 182, 183, 184, 185, 186, 187, 188, 189, 190, 191, 192, 193, 194, 195, 196, 197, 198, 199, 200, 201, 202, 203, 204, 205, 206, 207, 208, 209, 210, 211, 212, 213, 214, 215, 216, 217, 218, 219, 220, 221, 222, 223, 224, 225, 226, 227, 228, 229, 230, 231, 232, 233, 234, 235, 236, 237, 238, 239, 240, 241, 242, 243, 244, 245, 246, 247, 248, 249, 250, 251, 252, 253, 254, 255, 256, 257, 258, 259, 260, 261, 262, 263, 264, 265, 266, 267, 268, 269, 270, 271, 272, 273, 274, 275, 276, 277, 278, 279, 280, 281, 282, 283, 284, 285, 286, 287, 288, 289, 290, 291, 292, 293, 294, 295, 296, 297, 298, 299, 300, 301, 302, 303, 304, 305, 306, 307, 308, 309, 310, 311, 312, 313, 314, 315, 316, 317, 318, 319, 320, 321, 322, 323, 324, 325, 326, 327, 328, 329, 330, 331, 332, 333, 334, 335, 336, 337, 338, 339, 340, 341, 342, 343, 344, 345, 346, 347, 348, 349, 350, 351, 352, 353, 354, 355, 356, 357, 358, 359, 360, 361, 362, 363, 364, 365, 366, 367, 368, 369, 370, 371, 372, 373, 374, 375, 376, 377, 378, 379, 380, 381, 382, 383, 384, 385, 386, 387, 388, 389, 390, 391, 392, 393, 394, 395, 396, 397, 398, 399, 400, 401, 402, 403, 404, 405, 406, 407, 408, 409, 410, 411, 412, 413, 414, 415, 416, 417, 418, 419, 420, 421, 422, 423, 424, 425, 426, 427, 428, 429, 430, 431, 432, 433, 434, 435, 436, 437, 438, 439, 440, 441, 442, 443, 444, 445, 446, 447, 448, 449, 450, 451, 452, 453, 454, 455, 456, 457, 458, 459, 460, 461, 462, 463, 464, 465, 466, 467, 468, 469, 470, 471, 472, 473, 474, 475, 476, 477, 478, 479, 480, 481, 482, 483, 484, 485, 486, 487, 488, 489, 490, 491, 492, 493, 494, 495, 496, 497, 498, 499, 500, 501, 502, 503, 504, 505, 506, 507, 508, 509, 510, 511, 512, 513, 514, 515, 516, 517, 518, 519, 520, 521, 522, 523, 524, 525, 526, 527, 528, 529, 530, 531, 532, 533, 534, 535, 536, 537, 538, 539, 540, 541, 542, 543, 544, 545, 546, 547, 548, 549, 550, 551, 552, 553, 554, 555, 556, 557, 558, 559, 560, 561, 562, 563, 564, 565, 566, 567, 568, 569, 570, 571, 572, 573, 574, 575, 576, 577, 578, 579, 580, 581, 582, 583, 584, 585, 586, 587, 588, 589, 590, 591, 592, 593, 594, 595, 596, 597, 598, 599, 600, 601, 602, 603, 604, 605, 606, 607, 608, 609, 610, 611, 612, 613, 614, 615, 616, 617, 618, 619, 620, 621, 622, 623, 624, 625, 626, 627, 628, 629, 630, 631, 632, 633, 634, 635, 636, 637, 638, 639, 640, 641, 642, 643, 644, 645, 646, 647, 648, 649, 650, 651, 652, 653, 654, 655, 656, 657, 658, 659, 660, 661, 662, 663, 664, 665, 666, 667, 668, 669, 670, 671, 672, 673, 674, 675, 676, 677, 678, 679, 680, 681, 682, 683, 684, 685, 686, 687, 688, 689, 690, 691, 692, 693, 694, 695, 696, 697, 698, 699, 700, 701, 702, 703, 704, 705, 706, 707, 708, 709, 710, 711, 712, 713, 714, 715, 716, 717, 718, 719, 720, 721, 722, 723, 724, 725, 726, 727, 728, 729, 730, 731, 732, 733, 734, 735, 736, 737, 738, 739, 740, 741, 742, 743, 744, 745, 746, 747, 748, 749, 750, 751, 752, 753, 754, 755, 756, 757, 758, 759, 760, 761, 762, 763, 764, 765, 766, 767, 768, 769, 770, 771, 772, 773, 774, 775, 776, 777, 778, 779, 780, 781, 782, 783, 784, 785, 786, 787, 788, 789, 790, 791, 792, 793, 794, 795, 796, 797, 798, 799, 800, 801, 802, 803, 804, 805, 806, 807, 808, 809, 810, 811, 812, 813, 814, 815, 816, 817, 818, 819, 820, 821, 822, 823, 824, 825, 826, 827, 828, 829, 830, 831, 832, 833, 834, 835, 836, 837, 838, 839, 840, 841, 842, 843, 844, 845, 846, 847, 848, 849, 850, 851, 852, 853, 854, 855, 856, 857, 858, 859, 860, 861, 862, 863, 864, 865, 866, 867, 868, 869, 870, 871, 872, 873, 874, 875, 876, 877, 878, 879, 880, 881, 882, 883, 884, 885, 886, 887, 888, 889, 890, 891, 892, 893, 894, 895, 896, 897, 898, 899, 900, 901, 902, 903, 904, 905, 906, 907, 908, 909, 910, 911, 912, 913, 914, 915, 916, 917, 918, 919, 920, 921, 922, 923, 924, 925, 926, 927, 928, 929, 930, 931, 932, 933, 934, 935, 936, 937, 938, 939, 940, 941, 942, 943, 944, 945, 946, 947, 948, 949, 950, 951, 952, 953, 954, 955, 956, 957, 958, 959, 960, 961, 962, 963, 964, 965, 966, 967, 968, 969, 970, 971, 972, 973, 974, 975, 976, 977, 978, 979, 980, 981, 982, 983, 984, 985, 986, 987, 988, 989, 990, 991, 992, 993, 994, 995, 996, 997, 998, 999, 1000, 1001, 1002, 1003, 1004, 1005, 1006, 1007, 1008, 1009, 1010, 1011, 1012, 1013, 1014, 1015, 1016, 1017, 1018, 1019, 1020, 1021, 1022, 1023, 1024, 1025, 1026, 1027, 1028, 1029, 1030, 1031, 1032, 1033, 1034, 1035, 1036, 1037, 1038, 1039, 1040, 1041, 1042, 1043, 1044, 1045, 1046, 1047, 1048, 1049, 1050, 1051, 1052, 1053, 1054, 1055, 1056, 1057, 1058, 1059, 1060, 1061, 1062, 1063, 1064, 1065, 1066, 1067, 1068, 1069, 1070, 1071, 1072, 1073, 1074, 1075, 1076, 1077, 1078, 1079, 1080, 1081, 1082, 1083, 1084, 1085, 1086, 1087, 1088, 1089, 1090, 1091, 1092, 1093, 1094, 1095, 1096, 1097, 1098, 1099, 1100, 1101, 1102, 1103, 1104, 1105, 1106, 1107, 1108, 1109, 1110, 1111, 1112, 1113, 1114, 1115, 1116, 1117, 1118, 1119, 1120, 1121, 1122, 1123, 1124, 1125, 1126, 1127, 1128, 1129, 1130, 1131, 1132, 1133, 1134, 1135, 1136, 1137, 1138, 1139, 1140, 1141, 1142, 1143, 1144, 1145, 1146, 1147, 1148, 1149, 1150, 1151, 1152, 1153, 1154, 1155, 1156, 1157, 1158, 1159, 1160, 1161, 1162, 1163, 1164, 1165, 1166, 1167, 1168, 1169, 1170, 1171, 1172, 1173, 1174, 1175, 1176, 1177, 1178, 1179, 1180, 1181, 1182, 1183, 1184, 1185, 1186, 1187, 1188, 1189, 1190, 1191, 1192, 1193, 1194, 1195, 1196, 1197, 1198, 1199, 1200, 1201, 1202, 1203, 1204, 1205, 1206, 1207, 1208, 1209, 1210, 1211, 1212, 1213, 1214, 1215, 1216, 1217, 1218, 1219, 1220, 1221, 1222, 1223, 1224, 1225, 1226, 1227, 1228, 1229, 1230, 1231, 1232, 1233, 1234, 1235, 1236, 1237, 1238, 1239, 1240, 1241, 1242, 1243, 1244, 1245, 1246, 1247, 1248, 1249, 1250, 1251, 1252, 1253, 1254, 1255, 1256, 1257, 1258, 1259, 1260, 1261, 1262, 1263, 1264, 1265, 1266, 1267, 1268, 1269, 1270, 1271, 1272, 1273, 1274, 1275, 1276, 1277, 1278, 1279, 1280, 1281, 1282, 1283, 1284, 1285, 1286, 1287, 1288, 1289, 1290, 1291, 1292, 1293, 1294, 1295, 1296, 1297, 1298, 1299, 1300, 1301, 1302, 1303, 1304, 1305, 1306, 1307, 1308, 1309, 1310, 1311, 1312, 1313, 1314, 1315, 1316, 1317, 1318, 1319, 1320, 1321, 1322, 1323, 1324, 1325, 1326, 1327, 1328, 1329, 1330, 1331, 1332, 1333, 1334, 1335, 1336, 1337, 1338, 1339, 1340, 1341, 1342, 1343, 1344, 1345, 1346, 1347, 1348, 1349, 1350, 1351, 1352, 1353, 1354, 1355, 1356, 1357, 1358, 1359, 1360, 1361, 1362, 1363, 1364, 1365, 1366, 1367, 1368, 1369, 1370, 1371, 1372, 1373, 1374, 1375, 1376, 1377, 1378, 1379, 1380, 1381, 1382, 1383, 1384, 1385, 1386, 1387, 1388, 1389, 1390, 1391, 1392, 1393, 1394, 1395, 1396, 1397, 1398, 1399, 1400, 1401, 1402, 1403, 1404, 1405, 1406, 1407, 1408, 1409, 1410, 1411, 1412, 1413, 1414, 1415, 1416, 1417, 1418, 1419, 1420, 1421, 1422, 1423, 1424, 1425, 1426, 1427, 1428, 1429, 1430, 1431, 1432, 1433, 1434, 1435, 1436, 1437, 1438, 1439, 1440, 1441, 1442, 1443, 1444, 1445, 1446, 1447, 1448, 1449, 1450, 1451, 1452, 1453, 1454, 1455, 1456, 1457, 1458, 1459, 1460, 1461, 1462, 1463, 1464, 1465, 1466, 1467, 1468, 1469, 1470, 1471, 1472, 1473, 1474, 1475, 1476, 1477, 1478, 1479, 1480, 1481, 1482, 1483, 1484, 1485, 1486, 1487, 1488, 1489, 1490, 1491, 1492, 1493, 1494, 1495, 1496, 1497, 1498, 1499, 1500, 1501, 1502, 1503, 1504, 1505, 1506, 1507, 1508, 1509, 1510, 1511, 1512, 1513, 1514, 1515, 1516, 1517, 1518, 1519, 1520, 1521, 1522, 1523, 1524, 1525, 1526, 1527, 1528, 1529, 1530, 1531, 1532, 1533, 1534, 1535, 1536, 1537, 1538, 1539, 1540, 1541, 1542, 1543, 1544, 1545, 1546, 1547, 1548, 1549, 1550, 1551, 1552, 1553, 1554, 1555, 1556, 1557, 1558, 1559, 1560, 1561, 1562, 1563, 1564, 1565, 1566, 1567, 1568, 1569, 1570, 1571, 1572, 1573, 1574, 1575, 1576, 1577, 1578, 1579, 1580, 1581, 1582, 1583, 1584, 1585, 1586, 1587, 1588, 1589, 1590, 1591, 1592, 1593, 1594, 1595, 1596, 1597, 1598, 1599, 1600, 1601, 1602, 1603, 1604, 1605, 1606, 1607, 1608, 1609, 1610, 1611, 1612, 1613, 1614, 1615, 1616, 1617, 1618, 1619, 1620, 1621, 1622, 1623, 1624, 1625, 1626, 1627, 1628, 1629, 1630, 1631, 1632, 1633, 1634, 1635, 1636, 1637, 1638, 1639, 1640, 1641, 1642, 1643, 1644, 1645, 1646, 1647, 1648, 1649, 1650, 1651, 1652],
      "AcquisitionTime": ["180848.047500", "180849.052500", "180850.057500", "180851.060000", "180852.065000", "180853.067500", "180854.072500", "180855.077500", "180856.080000", "180857.085000", "180858.087500", "180859.092500", "180900.097500", "180901.100000", "180902.105000", "180903.110000", "180904.112500", "180905.117500", "180906.120000", "180907.125000", "180908.130000", "180909.132500", "180910.137500", "180911.140000", "180912.145000", "180913.150000", "180914.152500", "180915.157500", "180916.160000", "180917.165000", "180918.170000", "180919.172500", "180920.177500", "180921.180000", "180922.185000", "180923.190000", "180924.192500", "180925.197500", "180926.200000", "180927.205000", "180928.210000", "180929.212500", "180930.217500", "180931.220000", "180932.225000", "180933.230000", "180934.232500", "180935.237500", "180936.242500", "180937.245000", "180938.250000", "180939.252500", "180940.257500", "180941.262500", "180942.265000", "180943.270000", "180944.272500", "180945.277500", "180946.282500", "180947.285000", "180948.290000", "180949.292500", "180950.297500", "180951.302500", "180952.305000", "180953.310000", "180954.312500", "180955.317500", "180956.322500", "180957.325000", "180958.330000", "180959.332500", "181000.337500", "181001.342500", "181002.345000", "181003.350000", "181004.355000", "181005.357500", "181006.362500", "181007.365000", "181008.370000", "181009.375000", "181010.377500", "181011.382500", "181012.385000", "181013.390000", "181014.395000", "181015.397500", "181016.402500", "181017.405000", "181018.410000", "181019.415000", "181020.417500", "181021.422500", "181022.425000", "181023.430000", "181024.435000", "181025.437500", "181026.442500", "181027.445000", "181028.450000", "181029.455000", "181030.457500", "181031.462500", "181032.465000", "181033.470000", "181034.475000", "181035.477500", "181036.482500", "181037.487500", "181038.490000", "181039.495000", "181040.497500", "181041.502500", "181042.507500", "181043.510000", "181044.515000", "181045.517500", "181046.522500", "181047.527500", "181048.530000", "181049.535000", "181050.537500", "181051.542500", "181052.547500", "181053.550000", "181054.555000", "181055.557500", "181056.562500", "181057.567500", "181058.570000", "181059.575000", "181100.577500", "181101.582500", "181102.587500", "181103.590000", "181104.595000", "181105.600000", "181106.602500", "181107.607500", "181108.610000", "181109.615000", "181110.620000", "181111.622500", "181112.627500", "181113.630000", "181114.635000", "181115.640000", "181116.642500", "181117.647500", "181118.650000", "181119.655000", "181120.660000", "181121.662500", "181122.667500", "181123.670000", "181124.675000", "181125.680000", "181126.682500", "181127.687500", "181128.690000", "181129.695000", "181130.700000", "181131.702500", "181132.707500", "181133.710000", "181134.715000", "181135.720000", "181136.722500", "181137.727500", "181138.732500", "181139.735000", "181140.740000", "181141.742500", "181142.747500", "181143.752500", "181144.755000", "181145.760000", "181146.762500", "181147.767500", "181148.772500", "181149.775000", "181150.780000", "181151.782500", "181152.787500", "181153.792500", "181154.795000", "181155.800000", "181156.802500", "181157.807500", "181158.812500", "181159.815000", "181200.820000", "181201.822500", "181202.827500", "181203.832500", "181204.835000", "181205.840000", "181206.842500", "181207.847500", "181208.852500", "181209.855000", "181210.860000", "181211.865000", "181212.867500", "181213.872500", "181214.875000", "181215.880000", "181216.885000", "181217.887500", "181218.892500", "181219.895000", "181220.900000", "181221.905000", "181222.907500", "181223.912500", "181224.915000", "181225.920000", "181226.925000", "181227.927500", "181228.932500", "181229.935000", "181230.940000", "181231.945000", "181232.947500", "181233.952500", "181234.955000", "181235.960000", "181236.965000", "181237.967500", "181238.972500", "181239.977500", "181240.980000", "181241.985000", "181242.987500", "181243.992500", "181244.997500", "181246.000000", "181247.005000", "181248.007500", "181249.012500", "181250.017500", "181251.020000", "181252.025000", "181253.027500", "181254.032500", "181255.037500", "181256.040000", "181257.045000", "181258.047500", "181259.052500", "181300.057500", "181301.060000", "181302.065000", "181303.067500", "181304.072500", "181305.077500", "181306.080000", "181307.085000", "181308.087500", "181309.092500", "181310.097500", "181311.100000", "181312.105000", "181313.110000", "181314.112500", "181315.117500", "181316.120000", "181317.125000", "181318.130000", "181319.132500", "181320.137500", "181321.140000", "181322.145000", "181323.150000", "181324.152500", "181325.157500", "181326.160000", "181327.165000", "181328.170000", "181329.172500", "181330.177500", "181331.180000", "181332.185000", "181333.190000", "181334.192500", "181335.197500", "181336.200000", "181337.205000", "181338.210000", "181339.212500", "181340.217500", "181341.220000", "181342.225000", "181343.230000", "181344.232500", "181345.237500", "181346.242500", "181347.245000", "181348.250000", "181349.252500", "181350.257500", "181351.262500", "181352.265000", "181353.270000", "181354.272500", "181355.277500", "181356.282500", "181357.285000", "181358.290000", "181359.292500", "181400.297500", "181401.302500", "181402.305000", "181403.310000", "181404.312500", "181405.317500", "181406.322500", "181407.325000", "181408.330000", "181409.332500", "181410.337500", "181411.342500", "181412.345000", "181413.350000", "181414.355000", "181415.357500", "181416.362500", "181417.365000", "181418.370000", "181419.375000", "181420.377500", "181421.382500", "181422.385000", "181423.390000", "181424.395000", "181425.397500", "181426.402500", "181427.405000", "181428.410000", "181429.415000", "181430.417500", "181431.422500", "181432.425000", "181433.430000", "181434.435000", "181435.437500", "181436.442500", "181437.445000", "181438.450000", "181439.455000", "181440.457500", "181441.462500", "181442.465000", "181443.470000", "181444.475000", "181445.477500", "181446.482500", "181447.487500", "181448.490000", "181449.495000", "181450.497500", "181451.502500", "181452.507500", "181453.510000", "181454.515000", "181455.517500", "181456.522500", "181457.527500", "181458.530000", "181459.535000", "181500.537500", "181501.542500", "181502.547500", "181503.550000", "181504.555000", "181505.557500", "181506.562500", "181507.567500", "181508.570000", "181509.575000", "181510.577500", "181511.582500", "181512.587500", "181513.590000", "181514.595000", "181515.600000", "181516.602500", "181517.607500", "181518.610000", "181519.615000", "181520.620000", "181521.622500", "181522.627500", "181523.630000", "181524.635000", "181525.640000", "181526.642500", "181527.647500", "181528.650000", "181529.655000", "181530.660000", "181531.662500", "181532.667500", "181533.670000", "181534.675000", "181535.680000", "181536.682500", "181537.687500", "181538.690000", "181539.695000", "181540.700000", "181541.702500", "181542.707500", "181543.710000", "181544.715000", "181545.720000", "181546.722500", "181547.727500", "181548.732500", "181549.735000", "181550.740000", "181551.742500", "181552.747500", "181553.752500", "181554.755000", "181555.760000", "181556.762500", "181557.767500", "181558.772500", "181559.775000", "181600.780000", "181601.782500", "181602.787500", "181603.792500", "181604.795000", "181605.800000", "181606.802500", "181607.807500", "181608.812500", "181609.815000", "181610.820000", "181611.822500", "181612.827500", "181613.832500", "181614.835000", "181615.840000", "181616.842500", "181617.847500", "181618.852500", "181619.855000", "181620.860000", "181621.865000", "181622.867500", "181623.872500", "181624.875000", "181625.880000", "181626.885000", "181627.887500", "181628.892500", "181629.895000", "181630.900000", "181631.905000", "181632.907500", "181633.912500", "181634.915000", "181635.920000", "181636.925000", "181637.927500", "181638.932500", "181639.935000", "181640.940000", "181641.945000", "181642.947500", "181643.952500", "181644.955000", "181645.960000", "181646.965000", "181647.967500", "181648.972500", "181649.977500", "181650.980000", "181651.985000", "181652.987500", "181653.992500", "181654.997500", "181656.000000", "181657.005000", "181658.007500", "181659.012500", "181700.017500", "181701.020000", "181702.025000", "181703.027500", "181704.032500", "181705.037500", "181706.040000", "181707.045000", "181708.047500", "181709.052500", "181710.057500", "181711.060000", "181712.065000", "181713.067500", "181714.072500", "181715.077500", "181716.080000", "181717.085000", "181718.087500", "181719.092500", "181720.097500", "181721.100000", "181722.105000", "181723.110000", "181724.112500", "181725.117500", "181726.120000", "181727.125000", "181728.130000", "181729.132500", "181730.137500", "181731.140000", "181732.145000", "181733.150000", "181734.152500", "181735.157500", "181736.160000", "181737.165000", "181738.170000", "181739.172500", "181740.177500", "181741.180000", "181742.185000", "181743.190000", "181744.192500", "181745.197500", "181746.200000", "181747.205000", "181748.210000", "181749.212500", "181750.217500", "181751.220000", "181752.225000", "181753.230000", "181754.232500", "181755.237500", "181756.242500", "181757.245000", "181758.250000", "181759.252500", "181800.257500", "181801.262500", "181802.265000", "181803.270000", "181804.272500", "181805.277500", "181806.282500", "181807.285000", "181808.290000", "181809.292500", "181810.297500", "181811.302500", "181812.305000", "181813.310000", "181814.312500", "181815.317500", "181816.322500", "181817.325000", "181818.330000", "181819.332500", "181820.337500", "181821.342500", "181822.345000", "181823.350000", "181824.355000", "181825.357500", "181826.362500", "181827.365000", "181828.370000", "181829.375000", "181830.377500", "181831.382500", "181832.385000", "181833.390000", "181834.395000", "181835.397500", "181836.402500", "181837.405000", "181838.410000", "181839.415000", "181840.417500", "181841.422500", "181842.425000", "181843.430000", "181844.435000", "181845.437500", "181846.442500", "181847.445000", "181848.450000", "181849.455000", "181850.457500", "181851.462500", "181852.465000", "181853.470000", "181854.475000", "181855.477500", "181856.482500", "181857.487500", "181858.490000", "181859.495000", "181900.497500", "181901.502500", "181902.507500", "181903.510000", "181904.515000", "181905.517500", "181906.522500", "181907.527500", "181908.530000", "181909.535000", "181910.537500", "181911.542500", "181912.547500", "181913.550000", "181914.555000", "181915.557500", "181916.562500", "181917.567500", "181918.570000", "181919.575000", "181920.577500", "181921.582500", "181922.587500", "181923.590000", "181924.595000", "181925.600000", "181926.602500", "181927.607500", "181928.610000", "181929.615000", "181930.620000", "181931.622500", "181932.627500", "181933.630000", "181934.635000", "181935.640000", "181936.642500", "181937.647500", "181938.650000", "181939.655000", "181940.660000", "181941.662500", "181942.667500", "181943.670000", "181944.675000", "181945.680000", "181946.682500", "181947.687500", "181948.690000", "181949.695000", "181950.700000", "181951.702500", "181952.707500", "181953.710000", "181954.715000", "181955.720000", "181956.722500", "181957.727500", "181958.732500", "181959.735000", "182000.740000", "182001.742500", "182002.747500", "182003.752500", "182004.755000", "182005.760000", "182006.762500", "182007.767500", "182008.772500", "182009.775000", "182010.780000", "182011.782500", "182012.787500", "182013.792500", "182014.795000", "182015.800000", "182016.802500", "182017.807500", "182018.812500", "182019.815000", "182020.820000", "182021.822500", "182022.827500", "182023.832500", "182024.835000", "182025.840000", "182026.842500", "182027.847500", "182028.852500", "182029.855000", "182030.860000", "182031.865000", "182032.867500", "182033.872500", "182034.875000", "182035.880000", "182036.885000", "182037.887500", "182038.892500", "182039.895000", "182040.900000", "182041.905000", "182042.907500", "182043.912500", "182044.915000", "182045.920000", "182046.925000", "182047.927500", "182048.932500", "182049.935000", "182050.940000", "182051.945000", "182052.947500", "182053.952500", "182054.955000", "182055.960000", "182056.965000", "182057.967500", "182058.972500", "182059.977500", "182100.980000", "182101.985000", "182102.987500", "182103.992500", "182104.997500", "182106.000000", "182107.005000", "182108.007500", "182109.012500", "182110.017500", "182111.020000", "182112.025000", "182113.027500", "182114.032500", "182115.037500", "182116.040000", "182117.045000", "182118.047500", "182119.052500", "182120.057500", "182121.060000", "182122.065000", "182123.067500", "182124.072500", "182125.077500", "182126.080000", "182127.085000", "182128.087500", "182129.092500", "182130.097500", "182131.100000", "182132.105000", "182133.110000", "182134.112500", "182135.117500", "182136.120000", "182137.125000", "182138.130000", "182139.132500", "182140.137500", "182141.140000", "182142.145000", "182143.150000", "182144.152500", "182145.157500", "182146.160000", "182147.165000", "182148.170000", "182149.172500", "182150.177500", "182151.180000", "182152.185000", "182153.190000", "182154.192500", "182155.197500", "182156.200000", "182157.205000", "182158.210000", "182159.212500", "182200.217500", "182201.220000", "182202.225000", "182203.230000", "182204.232500", "182205.237500", "182206.242500", "182207.245000", "182208.250000", "182209.252500", "182210.257500", "182211.262500", "182212.265000", "182213.270000", "182214.272500", "182215.277500", "182216.282500", "182217.285000", "182218.290000", "182219.292500", "182220.297500", "182221.302500", "182222.305000", "182223.310000", "182224.312500", "182225.317500", "182226.322500", "182227.325000", "182228.330000", "182229.332500", "182230.337500", "182231.342500", "182232.345000", "182233.350000", "182234.355000", "182235.357500", "182236.362500", "182237.365000", "182238.370000", "182239.375000", "182240.377500", "182241.382500", "182242.385000", "182243.390000", "182244.395000", "182245.397500", "182246.402500", "182247.405000", "182248.410000", "182249.415000", "182250.417500", "182251.422500", "182252.425000", "182253.430000", "182254.435000", "182255.437500", "182256.442500", "182257.445000", "182258.450000", "182259.455000", "182300.457500", "182301.462500", "182302.465000", "182303.470000", "182304.475000", "182305.477500", "182306.482500", "182307.487500", "182308.490000", "182309.495000", "182310.497500", "182311.502500", "182312.507500", "182313.510000", "182314.515000", "182315.517500", "182316.522500", "182317.527500", "182318.530000", "182319.535000", "182320.537500", "182321.542500", "182322.547500", "182323.550000", "182324.555000", "182325.557500", "182326.562500", "182327.567500", "182328.570000", "182329.575000", "182330.577500", "182331.582500", "182332.587500", "182333.590000", "182334.595000", "182335.600000", "182336.602500", "182337.607500", "182338.610000", "182339.615000", "182340.620000", "182341.622500", "182342.627500", "182343.630000", "182344.635000", "182345.640000", "182346.642500", "182347.647500", "182348.650000", "182349.655000", "182350.660000", "182351.662500", "182352.667500", "182353.670000", "182354.675000", "182355.680000", "182356.682500", "182357.687500", "182358.690000", "182359.695000", "182400.700000", "182401.702500", "182402.707500", "182403.710000", "182404.715000", "182405.720000", "182406.722500", "182407.727500", "182408.732500", "182409.735000", "182410.740000", "182411.742500", "182412.747500", "182413.752500", "182414.755000", "182415.760000", "182416.762500", "182417.767500", "182418.772500", "182419.775000", "182420.780000", "182421.782500", "182422.787500", "182423.792500", "182424.795000", "182425.800000", "182426.802500", "182427.807500", "182428.812500", "182429.815000", "182430.820000", "182431.822500", "182432.827500", "182433.832500", "182434.835000", "182435.840000", "182436.842500", "182437.847500", "182438.852500", "182439.855000", "182440.860000", "182441.865000", "182