{
  "AcquisitionMatrixPE": 64,
  "AcquisitionNumber": 1,
  "AcquisitionTime": "17:43:44.797500",
  "BandwidthPerPixelPhaseEncode": 19.531,
  "BaseResolution": 64,
  "CoilString": "C:HEA;HEP",
  "ConversionSoftware": "dcm2niix",
  "ConversionSoftwareVersion": "v1.0.20190902",
  "DerivedVendorReportedEchoSpacing": 0.00080001,
  "DeviceSerialNumber": "26099",
  "DwellTime": 5.3e-06,
  "EchoTime": 0.0548,
  "EffectiveEchoSpacing": 0.00080001,
  "FlipAngle": 75,
  "ImageComments": "Unaliased_MB4_PE3_LB_SENSE1",
  "ImageOrientationPatientDICOM": [1, 2e-16, 0, -2e-16, 0.950516, -0.310676],
  "ImageType": [
    "ORIGINAL",
    "PRIMARY",
    "M",
    "MB",
    "ND",
    "MOSAIC"
],
  "ImagingFrequency": 63.6394,
  "InPlanePhaseEncodingDirectionDICOM": "COL",
  "InstitutionAddress": "Bedford_Way_26_London_London_GB_WC1H_0AP",
  "InstitutionName": "University_College",
  "InstitutionalDepartmentName": "Department",
  "MRAcquisitionType": "2D",
  "MagneticFieldStrength": 1.5,
  "Manufacturer": "Siemens",
  "ManufacturersModelName": "Avanto",
  "Modality": "MR",
  "MultibandAccelerationFactor": 4,
  "PartialFourier": 1,
  "PatientPosition": "HFS",
  "PercentPhaseFOV": 100,
  "PhaseEncodingDirection": "j-",
  "PhaseEncodingSteps": 64,
  "PhaseResolution": 1,
  "PixelBandwidth": 1474,
  "ProcedureStepDescription": "ucl_bbk_Jeremy",
  "ProtocolName": "EcL4-3.2m-40-1474-1s-55e",
  "PulseSequenceDetails": "%CustomerSeq%_cmrr_mbep2d_bold",
  "ReceiveCoilName": "32Ch_Head",
  "ReconMatrixPE": 64,
  "RepetitionTime": 1,
  "SAR": 0.0422635,
  "ScanOptions": "FS",
  "ScanningSequence": "EP",
  "SequenceName": "epfid2d1_64",
  "SequenceVariant": "SK_SS",
  "SeriesDescription": "EcL4-3.2m-40-1474-1s-55e",
  "SeriesNumber": 5,
  "ShimSetting": [155, -19, 396, 926, -380, 286, -255, 191],
  "SliceThickness": 3.2,
  "SliceTiming": [0, 0.7025, 0.4, 0.1, 0.8025, 0.5025, 0.2, 0.9025, 0.6025, 0.3, 0, 0.7025, 0.4, 0.1, 0.8025, 0.5025, 0.2, 0.9025, 0.6025, 0.3, 0, 0.7025, 0.4, 0.1, 0.8025, 0.5025, 0.2, 0.9025, 0.6025, 0.3, 0, 0.7025, 0.4, 0.1, 0.8025, 0.5025, 0.2, 0.9025, 0.6025, 0.3],
  "SoftwareVersions": "syngo_MR_B17",
  "SpacingBetweenSlices": 3.2,
  "StationName": "MRC26099",
  "TaskName": "split",
  "TotalReadoutTime": 0.0504006,
  "TxRefAmp": 220.892,
  "dcmmeta_affine": [
    [-3.203125, -6.40624994052057e-16, 1.9883291108516849e-16, 102.5],
    [-6.40624994052057e-16, 3.0446207523345947, -0.9941645860671997, -66.95829010009766],
    [0.0, 0.9951354265213013, 3.0416505336761475, -55.39140319824219],
    [0.0, 0.0, 0.0, 1.0]
],
  "dcmmeta_reorient_transform": [
    [0.0, -1.0, 0.0, 63.0],
    [1.0, 0.0, 0.0, 0.0],
    [0.0, 0.0, 1.0, 0.0],
    [0.0, 0.0, 0.0, 1.0]
],
  "dcmmeta_shape": [64, 64, 40, 1456],
  "dcmmeta_slice_dim": 2,
  "dcmmeta_version": 0.6,
  "global": {
    "const": {
      "AcquisitionMatrix": [64, 0, 0, 64],
      "AngioFlag": "N",
      "BitsAllocated": 16,
      "BitsStored": 12,
      "Columns": 448,
      "EchoNumbers": 1,
      "EchoTime": 54.8,
      "EchoTrainLength": 1,
      "FlipAngle": 75.0,
      "HighBit": 11,
      "ImageOrientationPatient": [1.0, 2e-16, 0.0, -2e-16, 0.95051573489763, -0.3106764196266],
      "ImagePositionPatient": [-717.5, -709.41998943505, 198.36812527156],
      "ImageType": [
        "ORIGINAL",
        "PRIMARY",
        "M",
        "MB",
        "ND",
        "MOSAIC"
],
      "ImagedNucleus": "1H",
      "ImagingFrequency": 63.639404,
      "InPlanePhaseEncodingDirection": "COL",
      "MRAcquisitionType": "2D",
      "MagneticFieldStrength": 1.5,
      "Manufacturer": "SIEMENS",
      "ManufacturerModelName": "Avanto",
      "Modality": "MR",
      "NumberOfAverages": 1.0,
      "NumberOfPhaseEncodingSteps": 64,
      "PercentPhaseFieldOfView": 100.0,
      "PercentSampling": 100.0,
      "PerformedProcedureStepStartTime": "171714.359000",
      "PhotometricInterpretation": "MONOCHROME2",
      "PixelBandwidth": 1474.0,
      "PixelRepresentation": 0,
      "PixelSpacing": [3.203125, 3.203125],
      "ProtocolName": "EcL4-3.2m-40-1474-1s-55e",
      "RepetitionTime": 1000.0,
      "Rows": 448,
      "SAR": 0.04226353441196,
      "SamplesPerPixel": 1,
      "ScanOptions": "FS",
      "ScanningSequence": "EP",
      "SequenceName": "epfid2d1_64",
      "SequenceVariant": [
        "SK",
        "SS"
],
      "SeriesDescription": "EcL4-3.2m-40-1474-1s-55e",
      "SeriesNumber": 5,
      "SeriesTime": "174419.046000",
      "SliceLocation": -31.848037956479,
      "SliceThickness": 3.2000000476837,
      "SmallestImagePixelValue": 0,
      "SoftwareVersions": "syngo MR B17",
      "SpacingBetweenSlices": 3.2000000810072,
      "SpecificCharacterSet": "ISO_IR 100",
      "StudyID": "1",
      "StudyTime": "171713.437000",
      "TransmitCoilName": "Body",
      "VariableFlipAngleFlag": "N",
      "WindowCenterWidthExplanation": "Algo1",
      "dBdt": 0.0},
    "slices": {}
  },
  "time": {
    "samples": {
      "AcquisitionNumber": [1, 2, 3, 4, 5, 6, 7, 8, 9, 10, 11, 12, 13, 14, 15, 16, 17, 18, 19, 20, 21, 22, 23, 24, 25, 26, 27, 28, 29, 30, 31, 32, 33, 34, 35, 36, 37, 38, 39, 40, 41, 42, 43, 44, 45, 46, 47, 48, 49, 50, 51, 52, 53, 54, 55, 56, 57, 58, 59, 60, 61, 62, 63, 64, 65, 66, 67, 68, 69, 70, 71, 72, 73, 74, 75, 76, 77, 78, 79, 80, 81, 82, 83, 84, 85, 86, 87, 88, 89, 90, 91, 92, 93, 94, 95, 96, 97, 98, 99, 100, 101, 102, 103, 104, 105, 106, 107, 108, 109, 110, 111, 112, 113, 114, 115, 116, 117, 118, 119, 120, 121, 122, 123, 124, 125, 126, 127, 128, 129, 130, 131, 132, 133, 134, 135, 136, 137, 138, 139, 140, 141, 142, 143, 144, 145, 146, 147, 148, 149, 150, 151, 152, 153, 154, 155, 156, 157, 158, 159, 160, 161, 162, 163, 164, 165, 166, 167, 168, 169, 170, 171, 172, 173, 174, 175, 176, 177, 178, 179, 180, 181, 182, 183, 184, 185, 186, 187, 188, 189, 190, 191, 192, 193, 194, 195, 196, 197, 198, 199, 200, 201, 202, 203, 204, 205, 206, 207, 208, 209, 210, 211, 212, 213, 214, 215, 216, 217, 218, 219, 220, 221, 222, 223, 224, 225, 226, 227, 228, 229, 230, 231, 232, 233, 234, 235, 236, 237, 238, 239, 240, 241, 242, 243, 244, 245, 246, 247, 248, 249, 250, 251, 252, 253, 254, 255, 256, 257, 258, 259, 260, 261, 262, 263, 264, 265, 266, 267, 268, 269, 270, 271, 272, 273, 274, 275, 276, 277, 278, 279, 280, 281, 282, 283, 284, 285, 286, 287, 288, 289, 290, 291, 292, 293, 294, 295, 296, 297, 298, 299, 300, 301, 302, 303, 304, 305, 306, 307, 308, 309, 310, 311, 312, 313, 314, 315, 316, 317, 318, 319, 320, 321, 322, 323, 324, 325, 326, 327, 328, 329, 330, 331, 332, 333, 334, 335, 336, 337, 338, 339, 340, 341, 342, 343, 344, 345, 346, 347, 348, 349, 350, 351, 352, 353, 354, 355, 356, 357, 358, 359, 360, 361, 362, 363, 364, 365, 366, 367, 368, 369, 370, 371, 372, 373, 374, 375, 376, 377, 378, 379, 380, 381, 382, 383, 384, 385, 386, 387, 388, 389, 390, 391, 392, 393, 394, 395, 396, 397, 398, 399, 400, 401, 402, 403, 404, 405, 406, 407, 408, 409, 410, 411, 412, 413, 414, 415, 416, 417, 418, 419, 420, 421, 422, 423, 424, 425, 426, 427, 428, 429, 430, 431, 432, 433, 434, 435, 436, 437, 438, 439, 440, 441, 442, 443, 444, 445, 446, 447, 448, 449, 450, 451, 452, 453, 454, 455, 456, 457, 458, 459, 460, 461, 462, 463, 464, 465, 466, 467, 468, 469, 470, 471, 472, 473, 474, 475, 476, 477, 478, 479, 480, 481, 482, 483, 484, 485, 486, 487, 488, 489, 490, 491, 492, 493, 494, 495, 496, 497, 498, 499, 500, 501, 502, 503, 504, 505, 506, 507, 508, 509, 510, 511, 512, 513, 514, 515, 516, 517, 518, 519, 520, 521, 522, 523, 524, 525, 526, 527, 528, 529, 530, 531, 532, 533, 534, 535, 536, 537, 538, 539, 540, 541, 542, 543, 544, 545, 546, 547, 548, 549, 550, 551, 552, 553, 554, 555, 556, 557, 558, 559, 560, 561, 562, 563, 564, 565, 566, 567, 568, 569, 570, 571, 572, 573, 574, 575, 576, 577, 578, 579, 580, 581, 582, 583, 584, 585, 586, 587, 588, 589, 590, 591, 592, 593, 594, 595, 596, 597, 598, 599, 600, 601, 602, 603, 604, 605, 606, 607, 608, 609, 610, 611, 612, 613, 614, 615, 616, 617, 618, 619, 620, 621, 622, 623, 624, 625, 626, 627, 628, 629, 630, 631, 632, 633, 634, 635, 636, 637, 638, 639, 640, 641, 642, 643, 644, 645, 646, 647, 648, 649, 650, 651, 652, 653, 654, 655, 656, 657, 658, 659, 660, 661, 662, 663, 664, 665, 666, 667, 668, 669, 670, 671, 672, 673, 674, 675, 676, 677, 678, 679, 680, 681, 682, 683, 684, 685, 686, 687, 688, 689, 690, 691, 692, 693, 694, 695, 696, 697, 698, 699, 700, 701, 702, 703, 704, 705, 706, 707, 708, 709, 710, 711, 712, 713, 714, 715, 716, 717, 718, 719, 720, 721, 722, 723, 724, 725, 726, 727, 728, 729, 730, 731, 732, 733, 734, 735, 736, 737, 738, 739, 740, 741, 742, 743, 744, 745, 746, 747, 748, 749, 750, 751, 752, 753, 754, 755, 756, 757, 758, 759, 760, 761, 762, 763, 764, 765, 766, 767, 768, 769, 770, 771, 772, 773, 774, 775, 776, 777, 778, 779, 780, 781, 782, 783, 784, 785, 786, 787, 788, 789, 790, 791, 792, 793, 794, 795, 796, 797, 798, 799, 800, 801, 802, 803, 804, 805, 806, 807, 808, 809, 810, 811, 812, 813, 814, 815, 816, 817, 818, 819, 820, 821, 822, 823, 824, 825, 826, 827, 828, 829, 830, 831, 832, 833, 834, 835, 836, 837, 838, 839, 840, 841, 842, 843, 844, 845, 846, 847, 848, 849, 850, 851, 852, 853, 854, 855, 856, 857, 858, 859, 860, 861, 862, 863, 864, 865, 866, 867, 868, 869, 870, 871, 872, 873, 874, 875, 876, 877, 878, 879, 880, 881, 882, 883, 884, 885, 886, 887, 888, 889, 890, 891, 892, 893, 894, 895, 896, 897, 898, 899, 900, 901, 902, 903, 904, 905, 906, 907, 908, 909, 910, 911, 912, 913, 914, 915, 916, 917, 918, 919, 920, 921, 922, 923, 924, 925, 926, 927, 928, 929, 930, 931, 932, 933, 934, 935, 936, 937, 938, 939, 940, 941, 942, 943, 944, 945, 946, 947, 948, 949, 950, 951, 952, 953, 954, 955, 956, 957, 958, 959, 960, 961, 962, 963, 964, 965, 966, 967, 968, 969, 970, 971, 972, 973, 974, 975, 976, 977, 978, 979, 980, 981, 982, 983, 984, 985, 986, 987, 988, 989, 990, 991, 992, 993, 994, 995, 996, 997, 998, 999, 1000, 1001, 1002, 1003, 1004, 1005, 1006, 1007, 1008, 1009, 1010, 1011, 1012, 1013, 1014, 1015, 1016, 1017, 1018, 1019, 1020, 1021, 1022, 1023, 1024, 1025, 1026, 1027, 1028, 1029, 1030, 1031, 1032, 1033, 1034, 1035, 1036, 1037, 1038, 1039, 1040, 1041, 1042, 1043, 1044, 1045, 1046, 1047, 1048, 1049, 1050, 1051, 1052, 1053, 1054, 1055, 1056, 1057, 1058, 1059, 1060, 1061, 1062, 1063, 1064, 1065, 1066, 1067, 1068, 1069, 1070, 1071, 1072, 1073, 1074, 1075, 1076, 1077, 1078, 1079, 1080, 1081, 1082, 1083, 1084, 1085, 1086, 1087, 1088, 1089, 1090, 1091, 1092, 1093, 1094, 1095, 1096, 1097, 1098, 1099, 1100, 1101, 1102, 1103, 1104, 1105, 1106, 1107, 1108, 1109, 1110, 1111, 1112, 1113, 1114, 1115, 1116, 1117, 1118, 1119, 1120, 1121, 1122, 1123, 1124, 1125, 1126, 1127, 1128, 1129, 1130, 1131, 1132, 1133, 1134, 1135, 1136, 1137, 1138, 1139, 1140, 1141, 1142, 1143, 1144, 1145, 1146, 1147, 1148, 1149, 1150, 1151, 1152, 1153, 1154, 1155, 1156, 1157, 1158, 1159, 1160, 1161, 1162, 1163, 1164, 1165, 1166, 1167, 1168, 1169, 1170, 1171, 1172, 1173, 1174, 1175, 1176, 1177, 1178, 1179, 1180, 1181, 1182, 1183, 1184, 1185, 1186, 1187, 1188, 1189, 1190, 1191, 1192, 1193, 1194, 1195, 1196, 1197, 1198, 1199, 1200, 1201, 1202, 1203, 1204, 1205, 1206, 1207, 1208, 1209, 1210, 1211, 1212, 1213, 1214, 1215, 1216, 1217, 1218, 1219, 1220, 1221, 1222, 1223, 1224, 1225, 1226, 1227, 1228, 1229, 1230, 1231, 1232, 1233, 1234, 1235, 1236, 1237, 1238, 1239, 1240, 1241, 1242, 1243, 1244, 1245, 1246, 1247, 1248, 1249, 1250, 1251, 1252, 1253, 1254, 1255, 1256, 1257, 1258, 1259, 1260, 1261, 1262, 1263, 1264, 1265, 1266, 1267, 1268, 1269, 1270, 1271, 1272, 1273, 1274, 1275, 1276, 1277, 1278, 1279, 1280, 1281, 1282, 1283, 1284, 1285, 1286, 1287, 1288, 1289, 1290, 1291, 1292, 1293, 1294, 1295, 1296, 1297, 1298, 1299, 1300, 1301, 1302, 1303, 1304, 1305, 1306, 1307, 1308, 1309, 1310, 1311, 1312, 1313, 1314, 1315, 1316, 1317, 1318, 1319, 1320, 1321, 1322, 1323, 1324, 1325, 1326, 1327, 1328, 1329, 1330, 1331, 1332, 1333, 1334, 1335, 1336, 1337, 1338, 1339, 1340, 1341, 1342, 1343, 1344, 1345, 1346, 1347, 1348, 1349, 1350, 1351, 1352, 1353, 1354, 1355, 1356, 1357, 1358, 1359, 1360, 1361, 1362, 1363, 1364, 1365, 1366, 1367, 1368, 1369, 1370, 1371, 1372, 1373, 1374, 1375, 1376, 1377, 1378, 1379, 1380, 1381, 1382, 1383, 1384, 1385, 1386, 1387, 1388, 1389, 1390, 1391, 1392, 1393, 1394, 1395, 1396, 1397, 1398, 1399, 1400, 1401, 1402, 1403, 1404, 1405, 1406, 1407, 1408, 1409, 1410, 1411, 1412, 1413, 1414, 1415, 1416, 1417, 1418, 1419, 1420, 1421, 1422, 1423, 1424, 1425, 1426, 1427, 1428, 1429, 1430, 1431, 1432, 1433, 1434, 1435, 1436, 1437, 1438, 1439, 1440, 1441, 1442, 1443, 1444, 1445, 1446, 1447, 1448, 1449, 1450, 1451, 1452, 1453, 1454, 1455, 1456],
      "AcquisitionTime": ["174344.797500", "174345.802500", "174346.805000", "174347.810000", "174348.812500", "174349.817500", "174350.822500", "174351.825000", "174352.830000", "174353.832500", "174354.837500", "174355.842500", "174356.845000", "174357.850000", "174358.852500", "174359.857500", "174400.862500", "174401.865000", "174402.870000", "174403.872500", "174404.877500", "174405.882500", "174406.885000", "174407.890000", "174408.892500", "174409.897500", "174410.902500", "174411.905000", "174412.910000", "174413.915000", "174414.917500", "174415.922500", "174416.925000", "174417.930000", "174418.935000", "174419.937500", "174420.942500", "174421.945000", "174422.950000", "174423.955000", "174424.957500", "174425.962500", "174426.965000", "174427.970000", "174428.975000", "174429.977500", "174430.982500", "174431.985000", "174432.990000", "174433.995000", "174434.997500", "174436.002500", "174437.005000", "174438.010000", "174439.015000", "174440.017500", "174441.022500", "174442.025000", "174443.030000", "174444.035000", "174445.037500", "174446.042500", "174447.047500", "174448.050000", "174449.055000", "174450.057500", "174451.062500", "174452.067500", "174453.070000", "174454.075000", "174455.077500", "174456.082500", "174457.087500", "174458.090000", "174459.095000", "174500.097500", "174501.102500", "174502.107500", "174503.110000", "174504.115000", "174505.117500", "174506.122500", "174507.127500", "174508.130000", "174509.135000", "174510.137500", "174511.142500", "174512.147500", "174513.150000", "174514.155000", "174515.157500", "174516.162500", "174517.167500", "174518.170000", "174519.175000", "174520.180000", "174521.182500", "174522.187500", "174523.190000", "174524.195000", "174525.200000", "174526.202500", "174527.207500", "174528.210000", "174529.215000", "174530.220000", "174531.222500", "174532.227500", "174533.230000", "174534.235000", "174535.240000", "174536.242500", "174537.247500", "174538.250000", "174539.255000", "174540.260000", "174541.262500", "174542.267500", "174543.270000", "174544.275000", "174545.280000", "174546.282500", "174547.287500", "174548.292500", "174549.295000", "174550.300000", "174551.302500", "174552.307500", "174553.312500", "174554.315000", "174555.320000", "174556.322500", "174557.327500", "174558.332500", "174559.335000", "174600.340000", "174601.342500", "174602.347500", "174603.352500", "174604.355000", "174605.360000", "174606.362500", "174607.367500", "174608.372500", "174609.375000", "174610.380000", "174611.382500", "174612.387500", "174613.392500", "174614.395000", "174615.400000", "174616.402500", "174617.407500", "174618.412500", "174619.415000", "174620.420000", "174621.425000", "174622.427500", "174623.432500", "174624.435000", "174625.440000", "174626.445000", "174627.447500", "174628.452500", "174629.455000", "174630.460000", "174631.465000", "174632.467500", "174633.472500", "174634.475000", "174635.480000", "174636.485000", "174637.487500", "174638.492500", "174639.495000", "174640.500000", "174641.505000", "174642.507500", "174643.512500", "174644.515000", "174645.520000", "174646.525000", "174647.527500", "174648.532500", "174649.537500", "174650.540000", "174651.545000", "174652.547500", "174653.552500", "174654.557500", "174655.560000", "174656.565000", "174657.567500", "174658.572500", "174659.577500", "174700.580000", "174701.585000", "174702.587500", "174703.592500", "174704.597500", "174705.600000", "174706.605000", "174707.607500", "174708.612500", "174709.617500", "174710.620000", "174711.625000", "174712.627500", "174713.632500", "174714.637500", "174715.640000", "174716.645000", "174717.647500", "174718.652500", "174719.657500", "174720.660000", "174721.665000", "174722.670000", "174723.672500", "174724.677500", "174725.680000", "174726.685000", "174727.690000", "174728.692500", "174729.697500", "174730.700000", "174731.705000", "174732.710000", "174733.712500", "174734.717500", "174735.720000", "174736.725000", "174737.730000", "174738.732500", "174739.737500", "174740.740000", "174741.745000", "174742.750000", "174743.752500", "174744.757500", "174745.760000", "174746.765000", "174747.770000", "174748.772500", "174749.777500", "174750.780000", "174751.785000", "174752.790000", "174753.792500", "174754.797500", "174755.802500", "174756.805000", "174757.810000", "174758.812500", "174759.817500", "174800.822500", "174801.825000", "174802.830000", "174803.832500", "174804.837500", "174805.842500", "174806.845000", "174807.850000", "174808.852500", "174809.857500", "174810.862500", "174811.865000", "174812.870000", "174813.872500", "174814.877500", "174815.882500", "174816.885000", "174817.890000", "174818.892500", "174819.897500", "174820.902500", "174821.905000", "174822.910000", "174823.915000", "174824.917500", "174825.922500", "174826.925000", "174827.930000", "174828.935000", "174829.937500", "174830.942500", "174831.945000", "174832.950000", "174833.955000", "174834.957500", "174835.962500", "174836.965000", "174837.970000", "174838.975000", "174839.977500", "174840.982500", "174841.985000", "174842.990000", "174843.995000", "174844.997500", "174846.002500", "174847.005000", "174848.010000", "174849.015000", "174850.017500", "174851.022500", "174852.025000", "174853.030000", "174854.035000", "174855.037500", "174856.042500", "174857.047500", "174858.050000", "174859.055000", "174900.057500", "174901.062500", "174902.067500", "174903.070000", "174904.075000", "174905.077500", "174906.082500", "174907.087500", "174908.090000", "174909.095000", "174910.097500", "174911.102500", "174912.107500", "174913.110000", "174914.115000", "174915.117500", "174916.122500", "174917.127500", "174918.130000", "174919.135000", "174920.137500", "174921.142500", "174922.147500", "174923.150000", "174924.155000", "174925.157500", "174926.162500", "174927.167500", "174928.170000", "174929.175000", "174930.180000", "174931.182500", "174932.187500", "174933.190000", "174934.195000", "174935.200000", "174936.202500", "174937.207500", "174938.210000", "174939.215000", "174940.220000", "174941.222500", "174942.227500", "174943.230000", "174944.235000", "174945.240000", "174946.242500", "174947.247500", "174948.250000", "174949.255000", "174950.260000", "174951.262500", "174952.267500", "174953.270000", "174954.275000", "174955.280000", "174956.282500", "174957.287500", "174958.292500", "174959.295000", "175000.300000", "175001.302500", "175002.307500", "175003.312500", "175004.315000", "175005.320000", "175006.322500", "175007.327500", "175008.332500", "175009.335000", "175010.340000", "175011.342500", "175012.347500", "175013.352500", "175014.355000", "175015.360000", "175016.362500", "175017.367500", "175018.372500", "175019.375000", "175020.380000", "175021.382500", "175022.387500", "175023.392500", "175024.395000", "175025.400000", "175026.402500", "175027.407500", "175028.412500", "175029.415000", "175030.420000", "175031.425000", "175032.427500", "175033.432500", "175034.435000", "175035.440000", "175036.445000", "175037.447500", "175038.452500", "175039.455000", "175040.460000", "175041.465000", "175042.467500", "175043.472500", "175044.475000", "175045.480000", "175046.485000", "175047.487500", "175048.492500", "175049.495000", "175050.500000", "175051.505000", "175052.507500", "175053.512500", "175054.515000", "175055.520000", "175056.525000", "175057.527500", "175058.532500", "175059.537500", "175100.540000", "175101.545000", "175102.547500", "175103.552500", "175104.557500", "175105.560000", "175106.565000", "175107.567500", "175108.572500", "175109.577500", "175110.580000", "175111.585000", "175112.587500", "175113.592500", "175114.597500", "175115.600000", "175116.605000", "175117.607500", "175118.612500", "175119.617500", "175120.620000", "175121.625000", "175122.627500", "175123.632500", "175124.637500", "175125.640000", "175126.645000", "175127.647500", "175128.652500", "175129.657500", "175130.660000", "175131.665000", "175132.670000", "175133.672500", "175134.677500", "175135.680000", "175136.685000", "175137.690000", "175138.692500", "175139.697500", "175140.700000", "175141.705000", "175142.710000", "175143.712500", "175144.717500", "175145.720000", "175146.725000", "175147.730000", "175148.732500", "175149.737500", "175150.740000", "175151.745000", "175152.750000", "175153.752500", "175154.757500", "175155.760000", "175156.765000", "175157.770000", "175158.772500", "175159.777500", "175200.780000", "175201.785000", "175202.790000", "175203.792500", "175204.797500", "175205.802500", "175206.805000", "175207.810000", "175208.812500", "175209.817500", "175210.822500", "175211.825000", "175212.830000", "175213.832500", "175214.837500", "175215.842500", "175216.845000", "175217.850000", "175218.852500", "175219.857500", "175220.862500", "175221.865000", "175222.870000", "175223.872500", "175224.877500", "175225.882500", "175226.885000", "175227.890000", "175228.892500", "175229.897500", "175230.902500", "175231.905000", "175232.910000", "175233.915000", "175234.917500", "175235.922500", "175236.925000", "175237.930000", "175238.935000", "175239.937500", "175240.942500", "175241.945000", "175242.950000", "175243.955000", "175244.957500", "175245.962500", "175246.965000", "175247.970000", "175248.975000", "175249.977500", "175250.982500", "175251.985000", "175252.990000", "175253.995000", "175254.997500", "175256.002500", "175257.005000", "175258.010000", "175259.015000", "175300.017500", "175301.022500", "175302.025000", "175303.030000", "175304.035000", "175305.037500", "175306.042500", "175307.047500", "175308.050000", "175309.055000", "175310.057500", "175311.062500", "175312.067500", "175313.070000", "175314.075000", "175315.077500", "175316.082500", "175317.087500", "175318.090000", "175319.095000", "175320.097500", "175321.102500", "175322.107500", "175323.110000", "175324.115000", "175325.117500", "175326.122500", "175327.127500", "175328.130000", "175329.135000", "175330.137500", "175331.142500", "175332.147500", "175333.150000", "175334.155000", "175335.157500", "175336.162500", "175337.167500", "175338.170000", "175339.175000", "175340.180000", "175341.182500", "175342.187500", "175343.190000", "175344.195000", "175345.200000", "175346.202500", "175347.207500", "175348.210000", "175349.215000", "175350.220000", "175351.222500", "175352.227500", "175353.230000", "175354.235000", "175355.240000", "175356.242500", "175357.247500", "175358.250000", "175359.255000", "175400.260000", "175401.262500", "175402.267500", "175403.270000", "175404.275000", "175405.280000", "175406.282500", "175407.287500", "175408.292500", "175409.295000", "175410.300000", "175411.302500", "175412.307500", "175413.312500", "175414.315000", "175415.320000", "175416.322500", "175417.327500", "175418.332500", "175419.335000", "175420.340000", "175421.342500", "175422.347500", "175423.352500", "175424.355000", "175425.360000", "175426.362500", "175427.367500", "175428.372500", "175429.375000", "175430.380000", "175431.382500", "175432.387500", "175433.392500", "175434.395000", "175435.400000", "175436.402500", "175437.407500", "175438.412500", "175439.415000", "175440.420000", "175441.425000", "175442.427500", "175443.432500", "175444.435000", "175445.440000", "175446.445000", "175447.447500", "175448.452500", "175449.455000", "175450.460000", "175451.465000", "175452.467500", "175453.472500", "175454.475000", "175455.480000", "175456.485000", "175457.487500", "175458.492500", "175459.495000", "175500.500000", "175501.505000", "175502.507500", "175503.512500", "175504.515000", "175505.520000", "175506.525000", "175507.527500", "175508.532500", "175509.537500", "175510.540000", "175511.545000", "175512.547500", "175513.552500", "175514.557500", "175515.560000", "175516.565000", "175517.567500", "175518.572500", "175519.577500", "175520.580000", "175521.585000", "175522.587500", "175523.592500", "175524.597500", "175525.600000", "175526.605000", "175527.607500", "175528.612500", "175529.617500", "175530.620000", "175531.625000", "175532.627500", "175533.632500", "175534.637500", "175535.640000", "175536.645000", "175537.647500", "175538.652500", "175539.657500", "175540.660000", "175541.665000", "175542.670000", "175543.672500", "175544.677500", "175545.680000", "175546.685000", "175547.690000", "175548.692500", "175549.697500", "175550.700000", "175551.705000", "175552.710000", "175553.712500", "175554.717500", "175555.720000", "175556.725000", "175557.730000", "175558.732500", "175559.737500", "175600.740000", "175601.745000", "175602.750000", "175603.752500", "175604.757500", "175605.760000", "175606.765000", "175607.770000", "175608.772500", "175609.777500", "175610.780000", "175611.785000", "175612.790000", "175613.792500", "175614.797500", "175615.802500", "175616.805000", "175617.810000", "175618.812500", "175619.817500", "175620.822500", "175621.825000", "175622.830000", "175623.832500", "175624.837500", "175625.842500", "175626.845000", "175627.850000", "175628.852500", "175629.857500", "175630.862500", "175631.865000", "175632.870000", "175633.872500", "175634.877500", "175635.882500", "175636.885000", "175637.890000", "175638.892500", "175639.897500", "175640.902500", "175641.905000", "175642.910000", "175643.915000", "175644.917500", "175645.922500", "175646.925000", "175647.930000", "175648.935000", "175649.937500", "175650.942500", "175651.945000", "175652.950000", "175653.955000", "175654.957500", "175655.962500", "175656.965000", "175657.970000", "175658.975000", "175659.977500", "175700.982500", "175701.985000", "175702.990000", "175703.995000", "175704.997500", "175706.002500", "175707.005000", "175708.010000", "175709.015000", "175710.017500", "175711.022500", "175712.025000", "175713.030000", "175714.035000", "175715.037500", "175716.042500", "175717.047500", "175718.050000", "175719.055000", "175720.057500", "175721.062500", "175722.067500", "175723.070000", "175724.075000", "175725.077500", "175726.082500", "175727.087500", "175728.090000", "175729.095000", "175730.097500", "175731.102500", "175732.107500", "175733.110000", "175734.115000", "175735.117500", "175736.122500", "175737.127500", "175738.130000", "175739.135000", "175740.137500", "175741.142500", "175742.147500", "175743.150000", "175744.155000", "175745.157500", "175746.162500", "175747.167500", "175748.170000", "175749.175000", "175750.180000", "175751.182500", "175752.187500", "175753.190000", "175754.195000", "175755.200000", "175756.202500", "175757.207500", "175758.210000", "175759.215000", "175800.220000", "175801.222500", "175802.227500", "175803.230000", "175804.235000", "175805.240000", "175806.242500", "175807.247500", "175808.250000", "175809.255000", "175810.260000", "175811.262500", "175812.267500", "175813.270000", "175814.275000", "175815.280000", "175816.282500", "175817.287500", "175818.292500", "175819.295000", "175820.300000", "175821.302500", "175822.307500", "175823.312500", "175824.315000", "175825.320000", "175826.322500", "175827.327500", "175828.332500", "175829.335000", "175830.340000", "175831.342500", "175832.347500", "175833.352500", "175834.355000", "175835.360000", "175836.362500", "175837.367500", "175838.372500", "175839.375000", "175840.380000", "175841.382500", "175842.387500", "175843.392500", "175844.395000", "175845.400000", "175846.402500", "175847.407500", "175848.412500", "175849.415000", "175850.420000", "175851.425000", "175852.427500", "175853.432500", "175854.435000", "175855.440000", "175856.445000", "175857.447500", "175858.452500", "175859.455000", "175900.460000", "175901.465000", "175902.467500", "175903.472500", "175904.475000", "175905.480000", "175906.485000", "175907.487500", "175908.492500", "175909.495000", "175910.500000", "175911.505000", "175912.507500", "175913.512500", "175914.515000", "175915.520000", "175916.525000", "175917.527500", "175918.532500", "175919.537500", "175920.540000", "175921.545000", "175922.547500", "175923.552500", "175924.557500", "175925.560000", "175926.565000", "175927.567500", "175928.572500", "175929.577500", "175930.580000", "175931.585000", "175932.587500", "175933.592500", "175934.597500", "175935.600000", "175936.605000", "175937.607500", "175938.612500", "175939.617500", "175940.620000", "175941.625000", "175942.627500", "175943.632500", "175944.637500", "175945.640000", "175946.645000", "175947.647500", "175948.652500", "175949.657500", "175950.660000", "175951.665000", "175952.670000", "175953.672500", "175954.677500", "175955.680000", "175956.685000", "175957.690000", "175958.692500", "175959.697500", "180000.700000", "180001.705000", "180002.710000", "180003.712500", "180004.717500", "180005.720000", "180006.725000", "180007.730000", "180008.732500", "180009.737500", "180010.740000", "180011.745000", "180012.750000", "180013.752500", "180014.757500", "180015.760000", "180016.765000", "180017.770000", "180018.772500", "180019.777500", "180020.780000", "180021.785000", "180022.790000", "180023.792500", "180024.797500", "180025.802500", "180026.805000", "180027.810000", "180028.812500", "180029.817500", "180030.822500", "180031.825000", "180032.830000", "180033.832500", "180034.837500", "180035.842500", "180036.845000", "180037.850000", "180038.852500", "180039.857500", "180040.862500", "180041.865000", "180042.870000", "180043.872500", "180044.877500", "180045.882500", "180046.885000", "180047.890000", "180048.892500", "180049.897500", "180050.90250