{
  "AcquisitionMatrixPE": 64,
  "AcquisitionNumber": 1,
  "AcquisitionTime": "18:17:15.805000",
  "BandwidthPerPixelPhaseEncode": 19.531,
  "BaseResolution": 64,
  "CoilString": "C:HEA;HEP",
  "ConversionSoftware": "dcm2niix",
  "ConversionSoftwareVersion": "v1.0.20190902",
  "DerivedVendorReportedEchoSpacing": 0.00080001,
  "DeviceSerialNumber": "26099",
  "DwellTime": 5.3e-06,
  "EchoTime": 0.0548,
  "EffectiveEchoSpacing": 0.00080001,
  "FlipAngle": 75,
  "ImageComments": "Unaliased_MB4_PE3_LB_SENSE1",
  "ImageOrientationPatientDICOM": [1, 2e-16, 0, -2e-16, 0.978509, -0.206204],
  "ImageType": [
    "ORIGINAL",
    "PRIMARY",
    "M",
    "MB",
    "ND",
    "MOSAIC"
],
  "ImagingFrequency": 63.681,
  "InPlanePhaseEncodingDirectionDICOM": "COL",
  "InstitutionAddress": "Bedford_Way_26_London_London_GB_WC1H_0AP",
  "InstitutionName": "University_College",
  "InstitutionalDepartmentName": "Department",
  "MRAcquisitionType": "2D",
  "MagneticFieldStrength": 1.5,
  "Manufacturer": "Siemens",
  "ManufacturersModelName": "Avanto",
  "Modality": "MR",
  "MultibandAccelerationFactor": 4,
  "PartialFourier": 1,
  "PatientPosition": "HFS",
  "PercentPhaseFOV": 100,
  "PhaseEncodingDirection": "j-",
  "PhaseEncodingSteps": 64,
  "PhaseResolution": 1,
  "PixelBandwidth": 1474,
  "ProcedureStepDescription": "ucl_bbk_Jeremy",
  "ProtocolName": "EcL4-3.2m-40-1474-1s-55e",
  "PulseSequenceDetails": "%CustomerSeq%_cmrr_mbep2d_bold",
  "ReceiveCoilName": "32Ch_Head",
  "ReconMatrixPE": 64,
  "RepetitionTime": 1,
  "SAR": 0.0452191,
  "ScanOptions": "FS",
  "ScanningSequence": "EP",
  "SequenceName": "epfid2d1_64",
  "SequenceVariant": "SK_SS",
  "SeriesDescription": "EcL4-3.2m-40-1474-1s-55e",
  "SeriesNumber": 4,
  "ShimSetting": [114, 8, 287, 697, -46, 572, -540, 264],
  "SliceThickness": 3.2,
  "SliceTiming": [0, 0.7025, 0.4025, 0.1025, 0.805, 0.5025, 0.2025, 0.905, 0.6025, 0.3025, 0, 0.7025, 0.4025, 0.1025, 0.805, 0.5025, 0.2025, 0.905, 0.6025, 0.3025, 0, 0.7025, 0.4025, 0.1025, 0.805, 0.5025, 0.2025, 0.905, 0.6025, 0.3025, 0, 0.7025, 0.4025, 0.1025, 0.805, 0.5025, 0.2025, 0.905, 0.6025, 0.3025],
  "SoftwareVersions": "syngo_MR_B17",
  "SpacingBetweenSlices": 3.2,
  "StationName": "MRC26099",
  "TaskName": "citizenfour",
  "CogAtlasID": "http://www.cognitiveatlas.org/task/id/tsk_jbg1oF4D9OTkO/",
  "TotalReadoutTime": 0.0504006,
  "TxRefAmp": 220.89,
  "dcmmeta_affine": [
    [-3.203125, -6.40624994052057e-16, 1.3197068456264558e-16, 102.5],
    [-6.40624994052057e-16, 3.134286642074585, -0.6598533987998962, -84.44102478027344],
    [0.0, 0.660497784614563, 3.1312289237976074, -62.50291442871094],
    [0.0, 0.0, 0.0, 1.0]
],
  "dcmmeta_reorient_transform": [
    [0.0, -1.0, 0.0, 63.0],
    [1.0, 0.0, 0.0, 0.0],
    [0.0, 0.0, 1.0, 0.0],
    [0.0, 0.0, 0.0, 1.0]
],
  "dcmmeta_shape": [64, 64, 40, 970],
  "dcmmeta_slice_dim": 2,
  "dcmmeta_version": 0.6,
  "global": {
    "const": {
      "AcquisitionMatrix": [64, 0, 0, 64],
      "AngioFlag": "N",
      "BitsAllocated": 16,
      "BitsStored": 12,
      "Columns": 448,
      "EchoNumbers": 1,
      "EchoTime": 54.8,
      "EchoTrainLength": 1,
      "FlipAngle": 75.0,
      "HighBit": 11,
      "ImageOrientationPatient": [1.0, 2e-16, 0.0, -2e-16, 0.97850898540324, -0.2062041839661],
      "ImagePositionPatient": [-717.5, -714.80205981979, 105.92401710186],
      "ImageType": [
        "ORIGINAL",
        "PRIMARY",
        "M",
        "MB",
        "ND",
        "MOSAIC"
],
      "ImagedNucleus": "1H",
      "ImagingFrequency": 63.68104,
      "InPlanePhaseEncodingDirection": "COL",
      "MRAcquisitionType": "2D",
      "MagneticFieldStrength": 1.5,
      "Manufacturer": "SIEMENS",
      "ManufacturerModelName": "Avanto",
      "Modality": "MR",
      "NumberOfAverages": 1.0,
      "NumberOfPhaseEncodingSteps": 64,
      "PercentPhaseFieldOfView": 100.0,
      "PercentSampling": 100.0,
      "PerformedProcedureStepStartTime": "180147.078000",
      "PhotometricInterpretation": "MONOCHROME2",
      "PixelBandwidth": 1474.0,
      "PixelRepresentation": 0,
      "PixelSpacing": [3.203125, 3.203125],
      "ProtocolName": "EcL4-3.2m-40-1474-1s-55e",
      "RepetitionTime": 1000.0,
      "Rows": 448,
      "SAR": 0.04521912241197,
      "SamplesPerPixel": 1,
      "ScanOptions": "FS",
      "ScanningSequence": "EP",
      "SequenceName": "epfid2d1_64",
      "SequenceVariant": [
        "SK",
        "SS"
],
      "SeriesDescription": "EcL4-3.2m-40-1474-1s-55e",
      "SeriesNumber": 4,
      "SeriesTime": "181807.296000",
      "SliceLocation": -43.747572938234,
      "SliceThickness": 3.2000000476837,
      "SmallestImagePixelValue": 0,
      "SoftwareVersions": "syngo MR B17",
      "SpacingBetweenSlices": 3.2000000609376,
      "SpecificCharacterSet": "ISO_IR 100",
      "StudyID": "1",
      "StudyTime": "180147.015000",
      "TransmitCoilName": "Body",
      "VariableFlipAngleFlag": "N",
      "WindowCenterWidthExplanation": "Algo1",
      "dBdt": 0.0},
    "slices": {}
  },
  "time": {
    "samples": {
      "AcquisitionNumber": [1, 2, 3, 4, 5, 6, 7, 8, 9, 10, 11, 12, 13, 14, 15, 16, 17, 18, 19, 20, 21, 22, 23, 24, 25, 26, 27, 28, 29, 30, 31, 32, 33, 34, 35, 36, 37, 38, 39, 40, 41, 42, 43, 44, 45, 46, 47, 48, 49, 50, 51, 52, 53, 54, 55, 56, 57, 58, 59, 60, 61, 62, 63, 64, 65, 66, 67, 68, 69, 70, 71, 72, 73, 74, 75, 76, 77, 78, 79, 80, 81, 82, 83, 84, 85, 86, 87, 88, 89, 90, 91, 92, 93, 94, 95, 96, 97, 98, 99, 100, 101, 102, 103, 104, 105, 106, 107, 108, 109, 110, 111, 112, 113, 114, 115, 116, 117, 118, 119, 120, 121, 122, 123, 124, 125, 126, 127, 128, 129, 130, 131, 132, 133, 134, 135, 136, 137, 138, 139, 140, 141, 142, 143, 144, 145, 146, 147, 148, 149, 150, 151, 152, 153, 154, 155, 156, 157, 158, 159, 160, 161, 162, 163, 164, 165, 166, 167, 168, 169, 170, 171, 172, 173, 174, 175, 176, 177, 178, 179, 180, 181, 182, 183, 184, 185, 186, 187, 188, 189, 190, 191, 192, 193, 194, 195, 196, 197, 198, 199, 200, 201, 202, 203, 204, 205, 206, 207, 208, 209, 210, 211, 212, 213, 214, 215, 216, 217, 218, 219, 220, 221, 222, 223, 224, 225, 226, 227, 228, 229, 230, 231, 232, 233, 234, 235, 236, 237, 238, 239, 240, 241, 242, 243, 244, 245, 246, 247, 248, 249, 250, 251, 252, 253, 254, 255, 256, 257, 258, 259, 260, 261, 262, 263, 264, 265, 266, 267, 268, 269, 270, 271, 272, 273, 274, 275, 276, 277, 278, 279, 280, 281, 282, 283, 284, 285, 286, 287, 288, 289, 290, 291, 292, 293, 294, 295, 296, 297, 298, 299, 300, 301, 302, 303, 304, 305, 306, 307, 308, 309, 310, 311, 312, 313, 314, 315, 316, 317, 318, 319, 320, 321, 322, 323, 324, 325, 326, 327, 328, 329, 330, 331, 332, 333, 334, 335, 336, 337, 338, 339, 340, 341, 342, 343, 344, 345, 346, 347, 348, 349, 350, 351, 352, 353, 354, 355, 356, 357, 358, 359, 360, 361, 362, 363, 364, 365, 366, 367, 368, 369, 370, 371, 372, 373, 374, 375, 376, 377, 378, 379, 380, 381, 382, 383, 384, 385, 386, 387, 388, 389, 390, 391, 392, 393, 394, 395, 396, 397, 398, 399, 400, 401, 402, 403, 404, 405, 406, 407, 408, 409, 410, 411, 412, 413, 414, 415, 416, 417, 418, 419, 420, 421, 422, 423, 424, 425, 426, 427, 428, 429, 430, 431, 432, 433, 434, 435, 436, 437, 438, 439, 440, 441, 442, 443, 444, 445, 446, 447, 448, 449, 450, 451, 452, 453, 454, 455, 456, 457, 458, 459, 460, 461, 462, 463, 464, 465, 466, 467, 468, 469, 470, 471, 472, 473, 474, 475, 476, 477, 478, 479, 480, 481, 482, 483, 484, 485, 486, 487, 488, 489, 490, 491, 492, 493, 494, 495, 496, 497, 498, 499, 500, 501, 502, 503, 504, 505, 506, 507, 508, 509, 510, 511, 512, 513, 514, 515, 516, 517, 518, 519, 520, 521, 522, 523, 524, 525, 526, 527, 528, 529, 530, 531, 532, 533, 534, 535, 536, 537, 538, 539, 540, 541, 542, 543, 544, 545, 546, 547, 548, 549, 550, 551, 552, 553, 554, 555, 556, 557, 558, 559, 560, 561, 562, 563, 564, 565, 566, 567, 568, 569, 570, 571, 572, 573, 574, 575, 576, 577, 578, 579, 580, 581, 582, 583, 584, 585, 586, 587, 588, 589, 590, 591, 592, 593, 594, 595, 596, 597, 598, 599, 600, 601, 602, 603, 604, 605, 606, 607, 608, 609, 610, 611, 612, 613, 614, 615, 616, 617, 618, 619, 620, 621, 622, 623, 624, 625, 626, 627, 628, 629, 630, 631, 632, 633, 634, 635, 636, 637, 638, 639, 640, 641, 642, 643, 644, 645, 646, 647, 648, 649, 650, 651, 652, 653, 654, 655, 656, 657, 658, 659, 660, 661, 662, 663, 664, 665, 666, 667, 668, 669, 670, 671, 672, 673, 674, 675, 676, 677, 678, 679, 680, 681, 682, 683, 684, 685, 686, 687, 688, 689, 690, 691, 692, 693, 694, 695, 696, 697, 698, 699, 700, 701, 702, 703, 704, 705, 706, 707, 708, 709, 710, 711, 712, 713, 714, 715, 716, 717, 718, 719, 720, 721, 722, 723, 724, 725, 726, 727, 728, 729, 730, 731, 732, 733, 734, 735, 736, 737, 738, 739, 740, 741, 742, 743, 744, 745, 746, 747, 748, 749, 750, 751, 752, 753, 754, 755, 756, 757, 758, 759, 760, 761, 762, 763, 764, 765, 766, 767, 768, 769, 770, 771, 772, 773, 774, 775, 776, 777, 778, 779, 780, 781, 782, 783, 784, 785, 786, 787, 788, 789, 790, 791, 792, 793, 794, 795, 796, 797, 798, 799, 800, 801, 802, 803, 804, 805, 806, 807, 808, 809, 810, 811, 812, 813, 814, 815, 816, 817, 818, 819, 820, 821, 822, 823, 824, 825, 826, 827, 828, 829, 830, 831, 832, 833, 834, 835, 836, 837, 838, 839, 840, 841, 842, 843, 844, 845, 846, 847, 848, 849, 850, 851, 852, 853, 854, 855, 856, 857, 858, 859, 860, 861, 862, 863, 864, 865, 866, 867, 868, 869, 870, 871, 872, 873, 874, 875, 876, 877, 878, 879, 880, 881, 882, 883, 884, 885, 886, 887, 888, 889, 890, 891, 892, 893, 894, 895, 896, 897, 898, 899, 900, 901, 902, 903, 904, 905, 906, 907, 908, 909, 910, 911, 912, 913, 914, 915, 916, 917, 918, 919, 920, 921, 922, 923, 924, 925, 926, 927, 928, 929, 930, 931, 932, 933, 934, 935, 936, 937, 938, 939, 940, 941, 942, 943, 944, 945, 946, 947, 948, 949, 950, 951, 952, 953, 954, 955, 956, 957, 958, 959, 960, 961, 962, 963, 964, 965, 966, 967, 968, 969, 970],
      "AcquisitionTime": ["181715.805000", "181716.810000", "181717.815000", "181718.817500", "181719.822500", "181720.825000", "181721.830000", "181722.835000", "181723.837500", "181724.842500", "181725.847500", "181726.850000", "181727.855000", "181728.857500", "181729.862500", "181730.867500", "181731.870000", "181732.875000", "181733.877500", "181734.882500", "181735.887500", "181736.890000", "181737.895000", "181738.897500", "181739.902500", "181740.907500", "181741.910000", "181742.915000", "181743.917500", "181744.922500", "181745.927500", "181746.930000", "181747.935000", "181748.937500", "181749.942500", "181750.947500", "181751.950000", "181752.955000", "181753.957500", "181754.962500", "181755.967500", "181756.970000", "181757.975000", "181758.980000", "181759.982500", "181800.987500", "181801.990000", "181802.995000", "181804.000000", "181805.002500", "181806.007500", "181807.010000", "181808.015000", "181809.020000", "181810.022500", "181811.027500", "181812.030000", "181813.035000", "181814.040000", "181815.042500", "181816.047500", "181817.050000", "181818.055000", "181819.060000", "181820.062500", "181821.067500", "181822.070000", "181823.075000", "181824.080000", "181825.082500", "181826.087500", "181827.092500", "181828.095000", "181829.100000", "181830.102500", "181831.107500", "181832.112500", "181833.115000", "181834.120000", "181835.122500", "181836.127500", "181837.132500", "181838.135000", "181839.140000", "181840.142500", "181841.147500", "181842.152500", "181843.155000", "181844.160000", "181845.162500", "181846.167500", "181847.172500", "181848.175000", "181849.180000", "181850.182500", "181851.187500", "181852.192500", "181853.195000", "181854.200000", "181855.202500", "181856.207500", "181857.212500", "181858.215000", "181859.220000", "181900.225000", "181901.227500", "181902.232500", "181903.235000", "181904.240000", "181905.245000", "181906.247500", "181907.252500", "181908.255000", "181909.260000", "181910.265000", "181911.267500", "181912.272500", "181913.275000", "181914.280000", "181915.285000", "181916.287500", "181917.292500", "181918.295000", "181919.300000", "181920.305000", "181921.307500", "181922.312500", "181923.315000", "181924.320000", "181925.325000", "181926.327500", "181927.332500", "181928.335000", "181929.340000", "181930.345000", "181931.347500", "181932.352500", "181933.357500", "181934.360000", "181935.365000", "181936.367500", "181937.372500", "181938.377500", "181939.380000", "181940.385000", "181941.387500", "181942.392500", "181943.397500", "181944.400000", "181945.405000", "181946.407500", "181947.412500", "181948.417500", "181949.420000", "181950.425000", "181951.427500", "181952.432500", "181953.437500", "181954.440000", "181955.445000", "181956.447500", "181957.452500", "181958.457500", "181959.460000", "182000.465000", "182001.470000", "182002.472500", "182003.477500", "182004.480000", "182005.485000", "182006.490000", "182007.492500", "182008.497500", "182009.500000", "182010.505000", "182011.510000", "182012.512500", "182013.517500", "182014.520000", "182015.525000", "182016.530000", "182017.532500", "182018.537500", "182019.540000", "182020.545000", "182021.550000", "182022.552500", "182023.557500", "182024.560000", "182025.565000", "182026.570000", "182027.572500", "182028.577500", "182029.580000", "182030.585000", "182031.590000", "182032.592500", "182033.597500", "182034.602500", "182035.605000", "182036.610000", "182037.612500", "182038.617500", "182039.622500", "182040.625000", "182041.630000", "182042.632500", "182043.637500", "182044.642500", "182045.645000", "182046.650000", "182047.652500", "182048.657500", "182049.662500", "182050.665000", "182051.670000", "182052.672500", "182053.677500", "182054.682500", "182055.685000", "182056.690000", "182057.692500", "182058.697500", "182059.702500", "182100.705000", "182101.710000", "182102.712500", "182103.717500", "182104.722500", "182105.725000", "182106.730000", "182107.735000", "182108.737500", "182109.742500", "182110.745000", "182111.750000", "182112.755000", "182113.757500", "182114.762500", "182115.765000", "182116.770000", "182117.775000", "182118.777500", "182119.782500", "182120.785000", "182121.790000", "182122.795000", "182123.797500", "182124.802500", "182125.805000", "182126.810000", "182127.815000", "182128.817500", "182129.822500", "182130.825000", "182131.830000", "182132.835000", "182133.837500", "182134.842500", "182135.847500", "182136.850000", "182137.855000", "182138.857500", "182139.862500", "182140.867500", "182141.870000", "182142.875000", "182143.877500", "182144.882500", "182145.887500", "182146.890000", "182147.895000", "182148.897500", "182149.902500", "182150.907500", "182151.910000", "182152.915000", "182153.917500", "182154.922500", "182155.927500", "182156.930000", "182157.935000", "182158.937500", "182159.942500", "182200.947500", "182201.950000", "182202.955000", "182203.957500", "182204.962500", "182205.967500", "182206.970000", "182207.975000", "182208.980000", "182209.982500", "182210.987500", "182211.990000", "182212.995000", "182214.000000", "182215.002500", "182216.007500", "182217.010000", "182218.015000", "182219.020000", "182220.022500", "182221.027500", "182222.030000", "182223.035000", "182224.040000", "182225.042500", "182226.047500", "182227.050000", "182228.055000", "182229.060000", "182230.062500", "182231.067500", "182232.070000", "182233.075000", "182234.080000", "182235.082500", "182236.087500", "182237.092500", "182238.095000", "182239.100000", "182240.102500", "182241.107500", "182242.112500", "182243.115000", "182244.120000", "182245.122500", "182246.127500", "182247.132500", "182248.135000", "182249.140000", "182250.142500", "182251.147500", "182252.152500", "182253.155000", "182254.160000", "182255.162500", "182256.167500", "182257.172500", "182258.175000", "182259.180000", "182300.182500", "182301.187500", "182302.192500", "182303.195000", "182304.200000", "182305.202500", "182306.207500", "182307.212500", "182308.215000", "182309.220000", "182310.225000", "182311.227500", "182312.232500", "182313.235000", "182314.240000", "182315.245000", "182316.247500", "182317.252500", "182318.255000", "182319.260000", "182320.265000", "182321.267500", "182322.272500", "182323.275000", "182324.280000", "182325.285000", "182326.287500", "182327.292500", "182328.295000", "182329.300000", "182330.305000", "182331.307500", "182332.312500", "182333.315000", "182334.320000", "182335.325000", "182336.327500", "182337.332500", "182338.335000", "182339.340000", "182340.345000", "182341.347500", "182342.352500", "182343.357500", "182344.360000", "182345.365000", "182346.367500", "182347.372500", "182348.377500", "182349.380000", "182350.385000", "182351.387500", "182352.392500", "182353.397500", "182354.400000", "182355.405000", "182356.407500", "182357.412500", "182358.417500", "182359.420000", "182400.425000", "182401.427500", "182402.432500", "182403.437500", "182404.440000", "182405.445000", "182406.447500", "182407.452500", "182408.457500", "182409.460000", "182410.465000", "182411.470000", "182412.472500", "182413.477500", "182414.480000", "182415.485000", "182416.490000", "182417.492500", "182418.497500", "182419.500000", "182420.505000", "182421.510000", "182422.512500", "182423.517500", "182424.520000", "182425.525000", "182426.530000", "182427.532500", "182428.537500", "182429.540000", "182430.545000", "182431.550000", "182432.552500", "182433.557500", "182434.560000", "182435.565000", "182436.570000", "182437.572500", "182438.577500", "182439.580000", "182440.585000", "182441.590000", "182442.592500", "182443.597500", "182444.602500", "182445.605000", "182446.610000", "182447.612500", "182448.617500", "182449.622500", "182450.625000", "182451.630000", "182452.632500", "182453.637500", "182454.642500", "182455.645000", "182456.650000", "182457.652500", "182458.657500", "182459.662500", "182500.665000", "182501.670000", "182502.672500", "182503.677500", "182504.682500", "182505.685000", "182506.690000", "182507.692500", "182508.697500", "182509.702500", "182510.705000", "182511.710000", "182512.712500", "182513.717500", "182514.722500", "182515.725000", "182516.730000", "182517.735000", "182518.737500", "182519.742500", "182520.745000", "182521.750000", "182522.755000", "182523.757500", "182524.762500", "182525.765000", "182526.770000", "182527.775000", "182528.777500", "182529.782500", "182530.785000", "182531.790000", "182532.795000", "182533.797500", "182534.802500", "182535.805000", "182536.810000", "182537.815000", "182538.817500", "182539.822500", "182540.825000", "182541.830000", "182542.835000", "182543.837500", "182544.842500", "182545.847500", "182546.850000", "182547.855000", "182548.857500", "182549.862500", "182550.867500", "182551.870000", "182552.875000", "182553.877500", "182554.882500", "182555.887500", "182556.890000", "182557.895000", "182558.897500", "182559.902500", "182600.907500", "182601.910000", "182602.915000", "182603.917500", "182604.922500", "182605.927500", "182606.930000", "182607.935000", "182608.937500", "182609.942500", "182610.947500", "182611.950000", "182612.955000", "182613.957500", "182614.962500", "182615.967500", "182616.970000", "182617.975000", "182618.980000", "182619.982500", "182620.987500", "182621.990000", "182622.995000", "182624.000000", "182625.002500", "182626.007500", "182627.010000", "182628.015000", "182629.020000", "182630.022500", "182631.027500", "182632.030000", "182633.035000", "182634.040000", "182635.042500", "182636.047500", "182637.050000", "182638.055000", "182639.060000", "182640.062500", "182641.067500", "182642.070000", "182643.075000", "182644.080000", "182645.082500", "182646.087500", "182647.092500", "182648.095000", "182649.100000", "182650.102500", "182651.107500", "182652.112500", "182653.115000", "182654.120000", "182655.122500", "182656.127500", "182657.132500", "182658.135000", "182659.140000", "182700.142500", "182701.147500", "182702.152500", "182703.155000", "182704.160000", "182705.162500", "182706.167500", "182707.172500", "182708.175000", "182709.180000", "182710.182500", "182711.187500", "182712.192500", "182713.195000", "182714.200000", "182715.202500", "182716.207500", "182717.212500", "182718.215000", "182719.220000", "182720.225000", "182721.227500", "182722.232500", "182723.235000", "182724.240000", "182725.245000", "182726.247500", "182727.252500", "182728.255000", "182729.260000", "182730.265000", "182731.267500", "182732.272500", "182733.275000", "182734.280000", "182735.285000", "182736.287500", "182737.292500", "182738.295000", "182739.300000", "182740.305000", "182741.307500", "182742.312500", "182743.315000", "182744.320000", "182745.325000", "182746.327500", "182747.332500", "182748.335000", "182749.340000", "182750.345000", "182751.347500", "182752.352500", "182753.357500", "182754.360000", "182755.365000", "182756.367500", "182757.372500", "182758.377500", "182759.380000", "182800.385000", "182801.387500", "182802.392500", "182803.397500", "182804.400000", "182805.405000", "182806.407500", "182807.412500", "182808.417500", "182809.420000", "182810.425000", "182811.427500", "182812.432500", "182813.437500", "182814.440000", "182815.445000", "182816.447500", "182817.452500", "182818.457500", "182819.460000", "182820.465000", "182821.470000", "182822.472500", "182823.477500", "182824.480000", "182825.485000", "182826.490000", "182827.492500", "182828.497500", "182829.500000", "182830.505000", "182831.510000", "182832.512500", "182833.517500", "182834.520000", "182835.525000", "182836.530000", "182837.532500", "182838.537500", "182839.540000", "182840.545000", "182841.550000", "182842.552500", "182843.557500", "182844.560000", "182845.565000", "182846.570000", "182847.572500", "182848.577500", "182849.580000", "182850.585000", "182851.590000", "182852.592500", "182853.597500", "182854.602500", "182855.605000", "182856.610000", "182857.612500", "182858.617500", "182859.622500", "182900.625000", "182901.630000", "182902.632500", "182903.637500", "182904.642500", "182905.645000", "182906.650000", "182907.652500", "182908.657500", "182909.662500", "182910.665000", "182911.670000", "182912.672500", "182913.677500", "182914.682500", "182915.685000", "182916.690000", "182917.692500", "182918.697500", "182919.702500", "182920.705000", "182921.710000", "182922.712500", "182923.717500", "182924.722500", "182925.725000", "182926.730000", "182927.735000", "182928.737500", "182929.742500", "182930.745000", "182931.750000", "182932.755000", "182933.757500", "182934.762500", "182935.765000", "182936.770000", "182937.775000", "182938.777500", "182939.782500", "182940.785000", "182941.790000", "182942.795000", "182943.797500", "182944.802500", "182945.805000", "182946.810000", "182947.815000", "182948.817500", "182949.822500", "182950.825000", "182951.830000", "182952.835000", "182953.837500", "182954.842500", "182955.847500", "182956.850000", "182957.855000", "182958.857500", "182959.862500", "183000.867500", "183001.870000", "183002.875000", "183003.877500", "183004.882500", "183005.887500", "183006.890000", "183007.895000", "183008.897500", "183009.902500", "183010.907500", "183011.910000", "183012.915000", "183013.917500", "183014.922500", "183015.927500", "183016.930000", "183017.935000", "183018.937500", "183019.942500", "183020.947500", "183021.950000", "183022.955000", "183023.957500", "183024.962500", "183025.967500", "183026.970000", "183027.975000", "183028.980000", "183029.982500", "183030.987500", "183031.990000", "183032.995000", "183034.000000", "183035.002500", "183036.007500", "183037.010000", "183038.015000", "183039.020000", "183040.022500", "183041.027500", "183042.030000", "183043.035000", "183044.040000", "183045.042500", "183046.047500", "183047.050000", "183048.055000", "183049.060000", "183050.062500", "183051.067500", "183052.070000", "183053.075000", "183054.080000", "183055.082500", "183056.087500", "183057.092500", "183058.095000", "183059.100000", "183100.102500", "183101.107500", "183102.112500", "183103.115000", "183104.120000", "183105.122500", "183106.127500", "183107.132500", "183108.135000", "183109.140000", "183110.142500", "183111.147500", "183112.152500", "183113.155000", "183114.160000", "183115.162500", "183116.167500", "183117.172500", "183118.175000", "183119.180000", "183120.182500", "183121.187500", "183122.192500", "183123.195000", "183124.200000", "183125.202500", "183126.207500", "183127.212500", "183128.215000", "183129.220000", "183130.225000", "183131.227500", "183132.232500", "183133.235000", "183134.240000", "183135.245000", "183136.247500", "183137.252500", "183138.255000", "183139.260000", "183140.265000", "183141.267500", "183142.272500", "183143.275000", "183144.280000", "183145.285000", "183146.287500", "183147.292500", "183148.295000", "183149.300000", "183150.305000", "183151.307500", "183152.312500", "183153.315000", "183154.320000", "183155.325000", "183156.327500", "183157.332500", "183158.335000", "183159.340000", "183200.345000", "183201.347500", "183202.352500", "183203.357500", "183204.360000", "183205.365000", "183206.367500", "183207.372500", "183208.377500", "183209.380000", "183210.385000", "183211.387500", "183212.392500", "183213.397500", "183214.400000", "183215.405000", "183216.407500", "183217.412500", "183218.417500", "183219.420000", "183220.425000", "183221.427500", "183222.432500", "183223.437500", "183224.440000", "183225.445000", "183226.447500", "183227.452500", "183228.457500", "183229.460000", "183230.465000", "183231.470000", "183232.472500", "183233.477500", "183234.480000", "183235.485000", "183236.490000", "183237.492500", "183238.497500", "183239.500000", "183240.505000", "183241.510000", "183242.512500", "183243.517500", "183244.520000", "183245.525000", "183246.530000", "183247.532500", "183248.537500", "183249.540000", "183250.545000", "183251.550000", "183252.552500", "183253.557500", "183254.560000", "183255.565000", "183256.570000", "183257.572500", "183258.577500", "183259.580000", "183300.585000", "183301.590000", "183302.592500", "183303.597500", "183304.602500", "183305.605000", "183306.610000", "183307.612500", "183308.617500", "183309.622500", "183310.625000", "183311.630000", "183312.632500", "183313.637500", "183314.642500", "183315.645000", "183316.650000", "183317.652500", "183318.657500", "183319.662500", "183320.665000", "183321.670000", "183322.672500", "183323.677500", "183324.682500", "183325.685000", "183326.690000", "183327.692500", "183328.697500"],
