{
  "AcquisitionMatrixPE": 64,
  "AcquisitionNumber": 1,
  "AcquisitionTime": "19:02:14.415000",
  "BandwidthPerPixelPhaseEncode": 19.531,
  "BaseResolution": 64,
  "CoilString": "C:HEA;HEP",
  "ConversionSoftware": "dcm2niix",
  "ConversionSoftwareVersion": "v1.0.20190902",
  "DerivedVendorReportedEchoSpacing": 0.00080001,
  "DeviceSerialNumber": "26099",
  "DwellTime": 5.3e-06,
  "EchoTime": 0.0548,
  "EffectiveEchoSpacing": 0.00080001,
  "FlipAngle": 75,
  "ImageComments": "Unaliased_MB4_PE3_LB_SENSE1",
  "ImageOrientationPatientDICOM": [1, 0, 0, 0, 0.987136, -0.159881],
  "ImageType": [
    "ORIGINAL",
    "PRIMARY",
    "M",
    "MB",
    "ND",
    "MOSAIC"
],
  "ImagingFrequency": 63.639,
  "InPlanePhaseEncodingDirectionDICOM": "COL",
  "InstitutionAddress": "Bedford_Way_26_London_London_GB_WC1H_0AP",
  "InstitutionName": "bbk-ucl",
  "InstitutionalDepartmentName": "Department",
  "MRAcquisitionType": "2D",
  "MagneticFieldStrength": 1.5,
  "Manufacturer": "Siemens",
  "ManufacturersModelName": "Avanto",
  "Modality": "MR",
  "MultibandAccelerationFactor": 4,
  "PartialFourier": 1,
  "PatientPosition": "HFS",
  "PercentPhaseFOV": 100,
  "PhaseEncodingDirection": "j-",
  "PhaseEncodingSteps": 64,
  "PhaseResolution": 1,
  "PixelBandwidth": 1474,
  "ProcedureStepDescription": "ucl_bbk_Jeremy",
  "ProtocolName": "EcL4-3.2m-40-1474-1s-55e",
  "PulseSequenceDetails": "%CustomerSeq%_cmrr_mbep2d_bold",
  "ReceiveCoilName": "32Ch_Head",
  "ReconMatrixPE": 64,
  "RepetitionTime": 1,
  "SAR": 0.0503021,
  "ScanOptions": "FS",
  "ScanningSequence": "EP",
  "SequenceName": "epfid2d1_64",
  "SequenceVariant": "SK_SS",
  "SeriesDescription": "EcL4-3.2m-40-1474-1s-55e",
  "SeriesNumber": 8,
  "ShimSetting": [126, 32, 351, 652, 9, 638, -627, 13],
  "SliceThickness": 3.2,
  "SliceTiming": [0, 0.7025, 0.4, 0.1, 0.8025, 0.5, 0.2, 0.9025, 0.6, 0.3, 0, 0.7025, 0.4, 0.1, 0.8025, 0.5, 0.2, 0.9025, 0.6, 0.3, 0, 0.7025, 0.4, 0.1, 0.8025, 0.5, 0.2, 0.9025, 0.6, 0.3, 0, 0.7025, 0.4, 0.1, 0.8025, 0.5, 0.2, 0.9025, 0.6, 0.3],
  "SoftwareVersions": "syngo_MR_B17",
  "SpacingBetweenSlices": 3.2,
  "StationName": "MRC26099",
  "TaskName": "citizenfour",
  "TotalReadoutTime": 0.0504006,
  "TxRefAmp": 226.205,
  "dcmmeta_affine": [
    [-3.203125, 0.0, 0.0, 102.5],
    [0.0, 3.1619207859039307, -0.5116198062896729, -88.81777954101562],
    [0.0, 0.5121194124221802, 3.1588361263275146, -42.70302963256836],
    [0.0, 0.0, 0.0, 1.0]
],
  "dcmmeta_reorient_transform": [
    [0.0, -1.0, 0.0, 63.0],
    [1.0, 0.0, 0.0, 0.0],
    [0.0, 0.0, 1.0, 0.0],
    [0.0, 0.0, 0.0, 1.0]
],
  "dcmmeta_shape": [64, 64, 40, 1163],
  "dcmmeta_slice_dim": 2,
  "dcmmeta_version": 0.6,
  "global": {
    "const": {
      "AcquisitionMatrix": [64, 0, 0, 64],
      "AngioFlag": "N",
      "BitsAllocated": 16,
      "BitsStored": 12,
      "Columns": 448,
      "EchoNumbers": 1,
      "EchoTime": 54.8,
      "EchoTrainLength": 1,
      "FlipAngle": 75.0,
      "HighBit": 11,
      "ImageOrientationPatient": [1.0, 0.0, 0.0, 0.0, 0.98713626451576, -0.1598811911322],
      "ImagePositionPatient": [-717.5, -717.47203771151, 87.887426909118],
      "ImageType": [
        "ORIGINAL",
        "PRIMARY",
        "M",
        "MB",
        "ND",
        "MOSAIC"
],
      "ImagedNucleus": "1H",
      "ImagingFrequency": 63.639051,
      "InPlanePhaseEncodingDirection": "COL",
      "MRAcquisitionType": "2D",
      "MagneticFieldStrength": 1.5,
      "Manufacturer": "SIEMENS",
      "ManufacturerModelName": "Avanto",
      "Modality": "MR",
      "NumberOfAverages": 1.0,
      "NumberOfPhaseEncodingSteps": 64,
      "PercentPhaseFieldOfView": 100.0,
      "PercentSampling": 100.0,
      "PerformedProcedureStepStartTime": "171706.671000",
      "PhotometricInterpretation": "MONOCHROME2",
      "PixelBandwidth": 1474.0,
      "PixelRepresentation": 0,
      "PixelSpacing": [3.203125, 3.203125],
      "ProtocolName": "EcL4-3.2m-40-1474-1s-55e",
      "RepetitionTime": 1000.0,
      "Rows": 448,
      "SAR": 0.05030212510079,
      "SamplesPerPixel": 1,
      "ScanOptions": "FS",
      "ScanningSequence": "EP",
      "SequenceName": "epfid2d1_64",
      "SequenceVariant": [
        "SK",
        "SS"
],
      "SeriesDescription": "EcL4-3.2m-40-1474-1s-55e",
      "SeriesNumber": 8,
      "SeriesTime": "190250.296000",
      "SliceLocation": -27.95341769643,
      "SliceThickness": 3.2000000476837,
      "SmallestImagePixelValue": 0,
      "SoftwareVersions": "syngo MR B17",
      "SpacingBetweenSlices": 3.2000000246623,
      "SpecificCharacterSet": "ISO_IR 100",
      "StudyID": "1",
      "StudyTime": "171706.625000",
      "TransmitCoilName": "Body",
      "VariableFlipAngleFlag": "N",
      "WindowCenterWidthExplanation": "Algo1",
      "dBdt": 0.0},
    "slices": {}
  },
  "time": {
    "samples": {
      "AcquisitionNumber": [1, 2, 3, 4, 5, 6, 7, 8, 9, 10, 11, 12, 13, 14, 15, 16, 17, 18, 19, 20, 21, 22, 23, 24, 25, 26, 27, 28, 29, 30, 31, 32, 33, 34, 35, 36, 37, 38, 39, 40, 41, 42, 43, 44, 45, 46, 47, 48, 49, 50, 51, 52, 53, 54, 55, 56, 57, 58, 59, 60, 61, 62, 63, 64, 65, 66, 67, 68, 69, 70, 71, 72, 73, 74, 75, 76, 77, 78, 79, 80, 81, 82, 83, 84, 85, 86, 87, 88, 89, 90, 91, 92, 93, 94, 95, 96, 97, 98, 99, 100, 101, 102, 103, 104, 105, 106, 107, 108, 109, 110, 111, 112, 113, 114, 115, 116, 117, 118, 119, 120, 121, 122, 123, 124, 125, 126, 127, 128, 129, 130, 131, 132, 133, 134, 135, 136, 137, 138, 139, 140, 141, 142, 143, 144, 145, 146, 147, 148, 149, 150, 151, 152, 153, 154, 155, 156, 157, 158, 159, 160, 161, 162, 163, 164, 165, 166, 167, 168, 169, 170, 171, 172, 173, 174, 175, 176, 177, 178, 179, 180, 181, 182, 183, 184, 185, 186, 187, 188, 189, 190, 191, 192, 193, 194, 195, 196, 197, 198, 199, 200, 201, 202, 203, 204, 205, 206, 207, 208, 209, 210, 211, 212, 213, 214, 215, 216, 217, 218, 219, 220, 221, 222, 223, 224, 225, 226, 227, 228, 229, 230, 231, 232, 233, 234, 235, 236, 237, 238, 239, 240, 241, 242, 243, 244, 245, 246, 247, 248, 249, 250, 251, 252, 253, 254, 255, 256, 257, 258, 259, 260, 261, 262, 263, 264, 265, 266, 267, 268, 269, 270, 271, 272, 273, 274, 275, 276, 277, 278, 279, 280, 281, 282, 283, 284, 285, 286, 287, 288, 289, 290, 291, 292, 293, 294, 295, 296, 297, 298, 299, 300, 301, 302, 303, 304, 305, 306, 307, 308, 309, 310, 311, 312, 313, 314, 315, 316, 317, 318, 319, 320, 321, 322, 323, 324, 325, 326, 327, 328, 329, 330, 331, 332, 333, 334, 335, 336, 337, 338, 339, 340, 341, 342, 343, 344, 345, 346, 347, 348, 349, 350, 351, 352, 353, 354, 355, 356, 357, 358, 359, 360, 361, 362, 363, 364, 365, 366, 367, 368, 369, 370, 371, 372, 373, 374, 375, 376, 377, 378, 379, 380, 381, 382, 383, 384, 385, 386, 387, 388, 389, 390, 391, 392, 393, 394, 395, 396, 397, 398, 399, 400, 401, 402, 403, 404, 405, 406, 407, 408, 409, 410, 411, 412, 413, 414, 415, 416, 417, 418, 419, 420, 421, 422, 423, 424, 425, 426, 427, 428, 429, 430, 431, 432, 433, 434, 435, 436, 437, 438, 439, 440, 441, 442, 443, 444, 445, 446, 447, 448, 449, 450, 451, 452, 453, 454, 455, 456, 457, 458, 459, 460, 461, 462, 463, 464, 465, 466, 467, 468, 469, 470, 471, 472, 473, 474, 475, 476, 477, 478, 479, 480, 481, 482, 483, 484, 485, 486, 487, 488, 489, 490, 491, 492, 493, 494, 495, 496, 497, 498, 499, 500, 501, 502, 503, 504, 505, 506, 507, 508, 509, 510, 511, 512, 513, 514, 515, 516, 517, 518, 519, 520, 521, 522, 523, 524, 525, 526, 527, 528, 529, 530, 531, 532, 533, 534, 535, 536, 537, 538, 539, 540, 541, 542, 543, 544, 545, 546, 547, 548, 549, 550, 551, 552, 553, 554, 555, 556, 557, 558, 559, 560, 561, 562, 563, 564, 565, 566, 567, 568, 569, 570, 571, 572, 573, 574, 575, 576, 577, 578, 579, 580, 581, 582, 583, 584, 585, 586, 587, 588, 589, 590, 591, 592, 593, 594, 595, 596, 597, 598, 599, 600, 601, 602, 603, 604, 605, 606, 607, 608, 609, 610, 611, 612, 613, 614, 615, 616, 617, 618, 619, 620, 621, 622, 623, 624, 625, 626, 627, 628, 629, 630, 631, 632, 633, 634, 635, 636, 637, 638, 639, 640, 641, 642, 643, 644, 645, 646, 647, 648, 649, 650, 651, 652, 653, 654, 655, 656, 657, 658, 659, 660, 661, 662, 663, 664, 665, 666, 667, 668, 669, 670, 671, 672, 673, 674, 675, 676, 677, 678, 679, 680, 681, 682, 683, 684, 685, 686, 687, 688, 689, 690, 691, 692, 693, 694, 695, 696, 697, 698, 699, 700, 701, 702, 703, 704, 705, 706, 707, 708, 709, 710, 711, 712, 713, 714, 715, 716, 717, 718, 719, 720, 721, 722, 723, 724, 725, 726, 727, 728, 729, 730, 731, 732, 733, 734, 735, 736, 737, 738, 739, 740, 741, 742, 743, 744, 745, 746, 747, 748, 749, 750, 751, 752, 753, 754, 755, 756, 757, 758, 759, 760, 761, 762, 763, 764, 765, 766, 767, 768, 769, 770, 771, 772, 773, 774, 775, 776, 777, 778, 779, 780, 781, 782, 783, 784, 785, 786, 787, 788, 789, 790, 791, 792, 793, 794, 795, 796, 797, 798, 799, 800, 801, 802, 803, 804, 805, 806, 807, 808, 809, 810, 811, 812, 813, 814, 815, 816, 817, 818, 819, 820, 821, 822, 823, 824, 825, 826, 827, 828, 829, 830, 831, 832, 833, 834, 835, 836, 837, 838, 839, 840, 841, 842, 843, 844, 845, 846, 847, 848, 849, 850, 851, 852, 853, 854, 855, 856, 857, 858, 859, 860, 861, 862, 863, 864, 865, 866, 867, 868, 869, 870, 871, 872, 873, 874, 875, 876, 877, 878, 879, 880, 881, 882, 883, 884, 885, 886, 887, 888, 889, 890, 891, 892, 893, 894, 895, 896, 897, 898, 899, 900, 901, 902, 903, 904, 905, 906, 907, 908, 909, 910, 911, 912, 913, 914, 915, 916, 917, 918, 919, 920, 921, 922, 923, 924, 925, 926, 927, 928, 929, 930, 931, 932, 933, 934, 935, 936, 937, 938, 939, 940, 941, 942, 943, 944, 945, 946, 947, 948, 949, 950, 951, 952, 953, 954, 955, 956, 957, 958, 959, 960, 961, 962, 963, 964, 965, 966, 967, 968, 969, 970, 971, 972, 973, 974, 975, 976, 977, 978, 979, 980, 981, 982, 983, 984, 985, 986, 987, 988, 989, 990, 991, 992, 993, 994, 995, 996, 997, 998, 999, 1000, 1001, 1002, 1003, 1004, 1005, 1006, 1007, 1008, 1009, 1010, 1011, 1012, 1013, 1014, 1015, 1016, 1017, 1018, 1019, 1020, 1021, 1022, 1023, 1024, 1025, 1026, 1027, 1028, 1029, 1030, 1031, 1032, 1033, 1034, 1035, 1036, 1037, 1038, 1039, 1040, 1041, 1042, 1043, 1044, 1045, 1046, 1047, 1048, 1049, 1050, 1051, 1052, 1053, 1054, 1055, 1056, 1057, 1058, 1059, 1060, 1061, 1062, 1063, 1064, 1065, 1066, 1067, 1068, 1069, 1070, 1071, 1072, 1073, 1074, 1075, 1076, 1077, 1078, 1079, 1080, 1081, 1082, 1083, 1084, 1085, 1086, 1087, 1088, 1089, 1090, 1091, 1092, 1093, 1094, 1095, 1096, 1097, 1098, 1099, 1100, 1101, 1102, 1103, 1104, 1105, 1106, 1107, 1108, 1109, 1110, 1111, 1112, 1113, 1114, 1115, 1116, 1117, 1118, 1119, 1120, 1121, 1122, 1123, 1124, 1125, 1126, 1127, 1128, 1129, 1130, 1131, 1132, 1133, 1134, 1135, 1136, 1137, 1138, 1139, 1140, 1141, 1142, 1143, 1144, 1145, 1146, 1147, 1148, 1149, 1150, 1151, 1152, 1153, 1154, 1155, 1156, 1157, 1158, 1159, 1160, 1161, 1162, 1163],
      "AcquisitionTime": ["190214.415000", "190215.417500", "190216.422500", "190217.425000", "190218.430000", "190219.435000", "190220.437500", "190221.442500", "190222.445000", "190223.450000", "190224.455000", "190225.457500", "190226.462500", "190227.465000", "190228.470000", "190229.475000", "190230.477500", "190231.482500", "190232.487500", "190233.490000", "190234.495000", "190235.497500", "190236.502500", "190237.507500", "190238.510000", "190239.515000", "190240.517500", "190241.522500", "190242.527500", "190243.530000", "190244.535000", "190245.537500", "190246.542500", "190247.547500", "190248.550000", "190249.555000", "190250.557500", "190251.562500", "190252.567500", "190253.570000", "190254.575000", "190255.577500", "190256.582500", "190257.587500", "190258.590000", "190259.595000", "190300.600000", "190301.602500", "190302.607500", "190303.610000", "190304.615000", "190305.620000", "190306.622500", "190307.627500", "190308.630000", "190309.635000", "190310.640000", "190311.642500", "190312.647500", "190313.650000", "190314.655000", "190315.660000", "190316.662500", "190317.667500", "190318.670000", "190319.675000", "190320.680000", "190321.682500", "190322.687500", "190323.690000", "190324.695000", "190325.700000", "190326.702500", "190327.707500", "190328.710000", "190329.715000", "190330.720000", "190331.722500", "190332.727500", "190333.732500", "190334.735000", "190335.740000", "190336.742500", "190337.747500", "190338.752500", "190339.755000", "190340.760000", "190341.762500", "190342.767500", "190343.772500", "190344.775000", "190345.780000", "190346.782500", "190347.787500", "190348.792500", "190349.795000", "190350.800000", "190351.802500", "190352.807500", "190353.812500", "190354.815000", "190355.820000", "190356.822500", "190357.827500", "190358.832500", "190359.835000", "190400.840000", "190401.842500", "190402.847500", "190403.852500", "190404.855000", "190405.860000", "190406.865000", "190407.867500", "190408.872500", "190409.875000", "190410.880000", "190411.885000", "190412.887500", "190413.892500", "190414.895000", "190415.900000", "190416.905000", "190417.907500", "190418.912500", "190419.915000", "190420.920000", "190421.925000", "190422.927500", "190423.932500", "190424.935000", "190425.940000", "190426.945000", "190427.947500", "190428.952500", "190429.955000", "190430.960000", "190431.965000", "190432.967500", "190433.972500", "190434.977500", "190435.980000", "190436.985000", "190437.987500", "190438.992500", "190439.997500", "190441.000000", "190442.005000", "190443.007500", "190444.012500", "190445.017500", "190446.020000", "190447.025000", "190448.027500", "190449.032500", "190450.037500", "190451.040000", "190452.045000", "190453.047500", "190454.052500", "190455.057500", "190456.060000", "190457.065000", "190458.067500", "190459.072500", "190500.077500", "190501.080000", "190502.085000", "190503.087500", "190504.092500", "190505.097500", "190506.100000", "190507.105000", "190508.110000", "190509.112500", "190510.117500", "190511.120000", "190512.125000", "190513.130000", "190514.132500", "190515.137500", "190516.140000", "190517.145000", "190518.150000", "190519.152500", "190520.157500", "190521.160000", "190522.165000", "190523.170000", "190524.172500", "190525.177500", "190526.180000", "190527.185000", "190528.190000", "190529.192500", "190530.197500", "190531.200000", "190532.205000", "190533.210000", "190534.212500", "190535.217500", "190536.220000", "190537.225000", "190538.230000", "190539.232500", "190540.237500", "190541.242500", "190542.245000", "190543.250000", "190544.252500", "190545.257500", "190546.262500", "190547.265000", "190548.270000", "190549.272500", "190550.277500", "190551.282500", "190552.285000", "190553.290000", "190554.292500", "190555.297500", "190556.302500", "190557.305000", "190558.310000", "190559.312500", "190600.317500", "190601.322500", "190602.325000", "190603.330000", "190604.332500", "190605.337500", "190606.342500", "190607.345000", "190608.350000", "190609.355000", "190610.357500", "190611.362500", "190612.365000", "190613.370000", "190614.375000", "190615.377500", "190616.382500", "190617.385000", "190618.390000", "190619.395000", "190620.397500", "190621.402500", "190622.405000", "190623.410000", "190624.415000", "190625.417500", "190626.422500", "190627.425000", "190628.430000", "190629.435000", "190630.437500", "190631.442500", "190632.445000", "190633.450000", "190634.455000", "190635.457500", "190636.462500", "190637.465000", "190638.470000", "190639.475000", "190640.477500", "190641.482500", "190642.487500", "190643.490000", "190644.495000", "190645.497500", "190646.502500", "190647.507500", "190648.510000", "190649.515000", "190650.517500", "190651.522500", "190652.527500", "190653.530000", "190654.535000", "190655.537500", "190656.542500", "190657.547500", "190658.550000", "190659.555000", "190700.557500", "190701.562500", "190702.567500", "190703.570000", "190704.575000", "190705.577500", "190706.582500", "190707.587500", "190708.590000", "190709.595000", "190710.600000", "190711.602500", "190712.607500", "190713.610000", "190714.615000", "190715.620000", "190716.622500", "190717.627500", "190718.630000", "190719.635000", "190720.640000", "190721.642500", "190722.647500", "190723.650000", "190724.655000", "190725.660000", "190726.662500", "190727.667500", "190728.670000", "190729.675000", "190730.680000", "190731.682500", "190732.687500", "190733.690000", "190734.695000", "190735.700000", "190736.702500", "190737.707500", "190738.710000", "190739.715000", "190740.720000", "190741.722500", "190742.727500", "190743.732500", "190744.735000", "190745.740000", "190746.742500", "190747.747500", "190748.752500", "190749.755000", "190750.760000", "190751.762500", "190752.767500", "190753.772500", "190754.775000", "190755.780000", "190756.782500", "190757.787500", "190758.792500", "190759.795000", "190800.800000", "190801.802500", "190802.807500", "190803.812500", "190804.815000", "190805.820000", "190806.822500", "190807.827500", "190808.832500", "190809.835000", "190810.840000", "190811.842500", "190812.847500", "190813.852500", "190814.855000", "190815.860000", "190816.865000", "190817.867500", "190818.872500", "190819.875000", "190820.880000", "190821.885000", "190822.887500", "190823.892500", "190824.895000", "190825.900000", "190826.905000", "190827.907500", "190828.912500", "190829.915000", "190830.920000", "190831.925000", "190832.927500", "190833.932500", "190834.935000", "190835.940000", "190836.945000", "190837.947500", "190838.952500", "190839.955000", "190840.960000", "190841.965000", "190842.967500", "190843.972500", "190844.977500", "190845.980000", "190846.985000", "190847.987500", "190848.992500", "190849.997500", "190851.000000", "190852.005000", "190853.007500", "190854.012500", "190855.017500", "190856.020000", "190857.025000", "190858.027500", "190859.032500", "190900.037500", "190901.040000", "190902.045000", "190903.047500", "190904.052500", "190905.057500", "190906.060000", "190907.065000", "190908.067500", "190909.072500", "190910.077500", "190911.080000", "190912.085000", "190913.087500", "190914.092500", "190915.097500", "190916.100000", "190917.105000", "190918.110000", "190919.112500", "190920.117500", "190921.120000", "190922.125000", "190923.130000", "190924.132500", "190925.137500", "190926.140000", "190927.145000", "190928.150000", "190929.152500", "190930.157500", "190931.160000", "190932.165000", "190933.170000", "190934.172500", "190935.177500", "190936.180000", "190937.185000", "190938.190000", "190939.192500", "190940.197500", "190941.200000", "190942.205000", "190943.210000", "190944.212500", "190945.217500", "190946.220000", "190947.225000", "190948.230000", "190949.232500", "190950.237500", "190951.242500", "190952.245000", "190953.250000", "190954.252500", "190955.257500", "190956.262500", "190957.265000", "190958.270000", "190959.272500", "191000.277500", "191001.282500", "191002.285000", "191003.290000", "191004.292500", "191005.297500", "191006.302500", "191007.305000", "191008.310000", "191009.312500", "191010.317500", "191011.322500", "191012.325000", "191013.330000", "191014.332500", "191015.337500", "191016.342500", "191017.345000", "191018.350000", "191019.355000", "191020.357500", "191021.362500", "191022.365000", "191023.370000", "191024.375000", "191025.377500", "191026.382500", "191027.385000", "191028.390000", "191029.395000", "191030.397500", "191031.402500", "191032.405000", "191033.410000", "191034.415000", "191035.417500", "191036.422500", "191037.425000", "191038.430000", "191039.435000", "191040.437500", "191041.442500", "191042.445000", "191043.450000", "191044.455000", "191045.457500", "191046.462500", "191047.465000", "191048.470000", "191049.475000", "191050.477500", "191051.482500", "191052.487500", "191053.490000", "191054.495000", "191055.497500", "191056.502500", "191057.507500", "191058.510000", "191059.515000", "191100.517500", "191101.522500", "191102.527500", "191103.530000", "191104.535000", "191105.537500", "191106.542500", "191107.547500", "191108.550000", "191109.555000", "191110.557500", "191111.562500", "191112.567500", "191113.570000", "191114.575000", "191115.577500", "191116.582500", "191117.587500", "191118.590000", "191119.595000", "191120.600000", "191121.602500", "191122.607500", "191123.610000", "191124.615000", "191125.620000", "191126.622500", "191127.627500", "191128.630000", "191129.635000", "191130.640000", "191131.642500", "191132.647500", "191133.650000", "191134.655000", "191135.660000", "191136.662500", "191137.667500", "191138.670000", "191139.675000", "191140.680000", "191141.682500", "191142.687500", "191143.690000", "191144.695000", "191145.700000", "191146.702500", "191147.707500", "191148.710000", "191149.715000", "191150.720000", "191151.722500", "191152.727500", "191153.732500", "191154.735000", "191155.740000", "191156.742500", "191157.747500", "191158.752500", "191159.755000", "191200.760000", "191201.762500", "191202.767500", "191203.772500", "191204.775000", "191205.780000", "191206.782500", "191207.787500", "191208.792500", "191209.795000", "191210.800000", "191211.802500", "191212.807500", "191213.812500", "191214.815000", "191215.820000", "191216.822500", "191217.827500", "191218.832500", "191219.835000", "191220.840000", "191221.842500", "191222.847500", "191223.852500", "191224.855000", "191225.860000", "191226.865000", "191227.867500", "191228.872500", "191229.875000", "191230.880000", "191231.885000", "191232.887500", "191233.892500", "191234.895000", "191235.900000", "191236.905000", "191237.907500", "191238.912500", "191239.915000", "191240.920000", "191241.925000", "191242.927500", "191243.932500", "191244.935000", "191245.940000", "191246.945000", "191247.947500", "191248.952500", "191249.955000", "191250.960000", "191251.965000", "191252.967500", "191253.972500", "191254.977500", "191255.980000", "191256.985000", "191257.987500", "191258.992500", "191259.997500", "191301.000000", "191302.005000", "191303.007500", "191304.012500", "191305.017500", "191306.020000", "191307.025000", "191308.027500", "191309.032500", "191310.037500", "191311.040000", "191312.045000", "191313.047500", "191314.052500", "191315.057500", "191316.060000", "191317.065000", "191318.067500", "191319.072500", "191320.077500", "191321.080000", "191322.085000", "191323.087500", "191324.092500", "191325.097500", "191326.100000", "191327.105000", "191328.110000", "191329.112500", "191330.117500", "191331.120000", "191332.125000", "191333.130000", "191334.132500", "191335.137500", "191336.140000", "191337.145000", "191338.150000", "191339.152500", "191340.157500", "191341.160000", "191342.165000", "191343.170000", "191344.172500", "191345.177500", "191346.180000", "191347.185000", "191348.190000", "191349.192500", "191350.197500", "191351.200000", "191352.205000", "191353.210000", "191354.212500", "191355.217500", "191356.220000", "191357.225000", "191358.230000", "191359.232500", "191400.237500", "191401.242500", "191402.245000", "191403.250000", "191404.252500", "191405.257500", "191406.262500", "191407.265000", "191408.270000", "191409.272500", "191410.277500", "191411.282500", "191412.285000", "191413.290000", "191414.292500", "191415.297500", "191416.302500", "191417.305000", "191418.310000", "191419.312500", "191420.317500", "191421.322500", "191422.325000", "191423.330000", "191424.332500", "191425.337500", "191426.342500", "191427.345000", "191428.350000", "191429.355000", "191430.357500", "191431.362500", "191432.365000", "191433.370000", "191434.375000", "191435.377500", "191436.382500", "191437.385000", "191438.390000", "191439.395000", "191440.397500", "191441.402500", "191442.405000", "191443.410000", "191444.415000", "191445.417500", "191446.422500", "191447.425000", "191448.430000", "191449.435000", "191450.437500", "191451.442500", "191452.445000", "191453.450000", "191454.455000", "191455.457500", "191456.462500", "191457.465000", "191458.470000", "191459.475000", "191500.477500", "191501.482500", "191502.487500", "191503.490000", "191504.495000", "191505.497500", "191506.502500", "191507.507500", "191508.510000", "191509.515000", "191510.517500", "191511.522500", "191512.527500", "191513.530000", "191514.535000", "191515.537500", "191516.542500", "191517.547500", "191518.550000", "191519.555000", "191520.557500", "191521.562500", "191522.567500", "191523.570000", "191524.575000", "191525.577500", "191526.582500", "191527.587500", "191528.590000", "191529.595000", "191530.600000", "191531.602500", "191532.607500", "191533.610000", "191534.615000", "191535.620000", "191536.622500", "191537.627500", "191538.630000", "191539.635000", "191540.640000", "191541.642500", "191542.647500", "191543.650000", "191544.655000", "191545.660000", "191546.662500", "191547.667500", "191548.670000", "191549.675000", "191550.680000", "191551.682500", "191552.687500", "191553.690000", "191554.695000", "191555.700000", "191556.702500", "191557.707500", "191558.710000", "191559.715000", "191600.720000", "191601.722500", "191602.727500", "191603.732500", "191604.735000", "191605.740000", "191606.742500", "191607.747500", "191608.752500", "191609.755000", "191610.760000", "191611.762500", "191612.767500", "191613.772500", "191614.775000", "191615.780000", "191616.782500", "191617.787500", "191618.792500", "191619.795000", "191620.800000", "191621.802500", "191622.807500", "191623.812500", "191624.815000", "191625.820000", "191626.822500", "191627.827500", "191628.832500", "191629.835000", "191630.840000", "191631.842500", "191632.847500", "191633.852500", "191634.855000", "191635.860000", "191636.865000", "191637.867500", "191638.872500", "191639.875000", "191640.880000", "191641.885000", "191642.887500", "191643.892500", "191644.895000", "191645.900000", "191646.905000", "191647.907500", "191648.912500", "191649.915000", "191650.920000", "191651.925000", "191652.927500", "191653.932500", "191654.935000", "191655.940000", "191656.945000", "191657.947500", "191658.952500", "191659.955000", "191700.960000", "191701.965000", "191702.967500", "191703.972500", "191704.977500", "191705.980000", "191706.985000", "191707.987500", "191708.992500", "191709.997500", "191711.000000", "191712.005000", "191713.007500", "191714.012500", "191715.017500", "191716.020000", "191717.025000", "191718.027500", "191719.032500", "191720.037500", "191721.040000", "191722.045000", "191723.047500", "191724.052500", "191725.057500", "191726.060000", "191727.065000", "191728.067500", "191729.072500", "191730.077500", "191731.080000", "191732.085000", "191733.087500", "191734.092500", "191735.097500", "191736.100000", "191737.105000", "191738.110000", "191739.112500", "191740.117500", "191741.120000", "191742.125000", "191743.130000", "191744.132500", "191745.137500", "191746.140000", "191747.145000", "191748.150000", "191749.152500", "191750.157500", "191751.160000", "191752.165000", "191753.170000", "191754.172500", "191755.177500", "191756.180000", "191757.185000", "191758.190000", "191759.192500", "191800.197500", "191801.200000", "191802.205000", "191803.210000", "191804.212500", "191805.217500", "191806.220000", "191807.225000", "191808.230000", "191809.232500", "191810.237500", "191811.242500", "191812.245000", "191813.250000", "191814.252500", "191815.257500", "191816.262500", "191817.265000", "191818.270000", "191819.272500", "191820.277500", "191821.282500", "191822.285000", "191823.290000", "191824.292500", "191825.297500", "191826.302500", "191827.305000", "191828.310000", "191829.312500", "191830.317500", "191831.322500", "191832.325000", "191833.330000", "191834.332500", "191835.337500", "191836.342500", "191837.345000", "191838.350000", "191839.355000", "191840.357500", "191841.362500", "191842.365000", "191843.370000", "191844.375000", "191845.377500", "191846.382500", "191847.385000", "191848.390000", "191849.395000", "191850.397500", "191851.402500", "191852.405000", "191853.410000", "191854.415000", "191855.417500", "191856.422500", "191857.425000", "191858.430000", "191859.435000", "191900.437500", "191901.442500", "191902.445000", "191903.450000", "191904.455000", "191905.457500", "191906.462500", "191907.465000", "191908.470000", "191909.475000", "191910.477500", "191911.482500", "191912.487500", "191913.490000", "191914.495000", "191915.497500", "191916.502500", "191917.507500", "191918.510000", "191919.515000", "191920.517500", "191921.522500", "191922.527500", "191923.530000", "191924.535000", "191925.537500", "191926.542500", "191927.547500", "191928.550000", "191929.555000", "191930.557500", "191931.562500", "191932.567500", "191933.570000", "191934.575000", "191935.577500", "191936.582500", "191937.587500", "191938.590000", "191939.595000", "191940.600000", "191941.602500", "191942.607500", "191943.610000", "191944.615000", "191945.620000", "191946.622500", "191947.627500", "191948.630000", "191949.635000", "191950.640000", "191951.642500", "191952.647500", "191953.650000", "191954.655000", "191955.660000", "191956.662500", "191957.667500", "191958.670000", "191959.675000", "192000.680000", "192001.682500", "192002.687500", "192003.690000", "192004.695000", "192005.700000", "192006.702500", "192007.707500", "192008.710000", "192009.715000", "192010.720000", "192011.722500", "192012.727500", "192013.732500", "192014.735000", "192015.740000", "192016.742500", "192017.747500", "192018.752500", "192019.755000", "192020.760000", "192021.762500", "192022.767500", "192023.772500", "192024.775000", "192025.780000", "192026.782500", "192027.787500", "192028.792500", "192029.795000", "192030.800000", "192031.802500", "192032.807500", "192033.812500", "192034.815000", "192035.820000", "192036.822500", "192037.827500", "192038.832500", "192039.835000", "192040.840000", "192041.842500", "192042.847500", "192043.852500", "192044.855000", "192045.860000", "192046.865000", "192047.867500", "192048.872500", "192049.875000", "192050.880000", "192051.885000", "192052.887500", "192053.892500", "192054.895000", "192055.900000", "192056.905000", "192057.907500", "192058.912500", "192059.915000", "192100.920000", "192101.925000", "192102.927500", "192103.932500", "192104.935000", "192105.940000", "192106.945000", "192107.947500", "192108.952500", "192109.955000", "19211