{
  "AcquisitionMatrixPE": 64,
  "AcquisitionNumber": 1,
  "AcquisitionTime": "18:09:34.787500",
  "BandwidthPerPixelPhaseEncode": 19.531,
  "BaseResolution": 64,
  "CoilString": "C:HEA;HEP",
  "ConversionSoftware": "dcm2niix",
  "ConversionSoftwareVersion": "v1.0.20190902",
  "DerivedVendorReportedEchoSpacing": 0.00080001,
  "DeviceSerialNumber": "26099",
  "DwellTime": 5.3e-06,
  "EchoTime": 0.0548,
  "EffectiveEchoSpacing": 0.00080001,
  "FlipAngle": 75,
  "ImageComments": "Unaliased_MB4_PE3_LB_SENSE1",
  "ImageOrientationPatientDICOM": [1, 0, 0, 0, 0.949972, -0.312335],
  "ImageType": [
    "ORIGINAL",
    "PRIMARY",
    "M",
    "MB",
    "ND",
    "MOSAIC"
],
  "ImagingFrequency": 63.6393,
  "InPlanePhaseEncodingDirectionDICOM": "COL",
  "InstitutionAddress": "Bedford_Way_26_London_London_GB_WC1H_0AP",
  "InstitutionName": "University_College",
  "InstitutionalDepartmentName": "Department",
  "MRAcquisitionType": "2D",
  "MagneticFieldStrength": 1.5,
  "Manufacturer": "Siemens",
  "ManufacturersModelName": "Avanto",
  "Modality": "MR",
  "MultibandAccelerationFactor": 4,
  "PartialFourier": 1,
  "PatientPosition": "HFS",
  "PercentPhaseFOV": 100,
  "PhaseEncodingDirection": "j-",
  "PhaseEncodingSteps": 64,
  "PhaseResolution": 1,
  "PixelBandwidth": 1474,
  "ProcedureStepDescription": "ucl_bbk_Jeremy",
  "ProtocolName": "EcL4-3.2m-40-1474-1s-55e",
  "PulseSequenceDetails": "%CustomerSeq%_cmrr_mbep2d_bold",
  "ReceiveCoilName": "32Ch_Head",
  "ReconMatrixPE": 64,
  "RepetitionTime": 1,
  "SAR": 0.0372588,
  "ScanOptions": "FS",
  "ScanningSequence": "EP",
  "SequenceName": "epfid2d1_64",
  "SequenceVariant": "SK_SS",
  "SeriesDescription": "EcL4-3.2m-40-1474-1s-55e",
  "SeriesNumber": 5,
  "ShimSetting": [177, -31, 406, 1254, -57, 613, -397, 149],
  "SliceThickness": 3.2,
  "SliceTiming": [0, 0.7025, 0.4, 0.1, 0.8025, 0.5, 0.2, 0.9025, 0.6025, 0.3, 0, 0.7025, 0.4, 0.1, 0.8025, 0.5, 0.2, 0.9025, 0.6025, 0.3, 0, 0.7025, 0.4, 0.1, 0.8025, 0.5, 0.2, 0.9025, 0.6025, 0.3, 0, 0.7025, 0.4, 0.1, 0.8025, 0.5, 0.2, 0.9025, 0.6025, 0.3],
  "SoftwareVersions": "syngo_MR_B17",
  "SpacingBetweenSlices": 3.2,
  "StationName": "MRC26099",
  "TaskName": "12yearsaslave",
  "CogAtlasID": "http://www.cognitiveatlas.org/task/id/tsk_jbg1oF4D9OTkO/",
  "TotalReadoutTime": 0.0504006,
  "TxRefAmp": 212.863,
  "dcmmeta_affine": [
    [-3.203125, 0.0, 0.0, 102.5],
    [0.0, 3.042879343032837, -0.9994717240333557, -75.6143798828125],
    [0.0, 1.0004477500915527, 3.0399105548858643, -63.706180572509766],
    [0.0, 0.0, 0.0, 1.0]
],
  "dcmmeta_reorient_transform": [
    [0.0, -1.0, 0.0, 63.0],
    [1.0, 0.0, 0.0, 0.0],
    [0.0, 0.0, 1.0, 0.0],
    [0.0, 0.0, 0.0, 1.0]
],
  "dcmmeta_shape": [64, 64, 40, 1127],
  "dcmmeta_slice_dim": 2,
  "dcmmeta_version": 0.6,
  "global": {
    "const": {
      "AcquisitionMatrix": [64, 0, 0, 64],
      "AngioFlag": "N",
      "BitsAllocated": 16,
      "BitsStored": 12,
      "Columns": 448,
      "EchoNumbers": 1,
      "EchoTime": 54.8,
      "EchoTrainLength": 1,
      "FlipAngle": 75.0,
      "HighBit": 11,
      "ImageOrientationPatient": [1.0, 0.0, 0.0, 0.0, 0.94997205164203, -0.3123349181552],
      "ImagePositionPatient": [-717.5, -700.31982704278, 191.4080048872],
      "ImageType": [
        "ORIGINAL",
        "PRIMARY",
        "M",
        "MB",
        "ND",
        "MOSAIC"
],
      "ImagedNucleus": "1H",
      "ImagingFrequency": 63.639319,
      "InPlanePhaseEncodingDirection": "COL",
      "MRAcquisitionType": "2D",
      "MagneticFieldStrength": 1.5,
      "Manufacturer": "SIEMENS",
      "ManufacturerModelName": "Avanto",
      "Modality": "MR",
      "NumberOfAverages": 1.0,
      "NumberOfPhaseEncodingSteps": 64,
      "PercentPhaseFieldOfView": 100.0,
      "PercentSampling": 100.0,
      "PerformedProcedureStepStartTime": "173044.140000",
      "PhotometricInterpretation": "MONOCHROME2",
      "PixelBandwidth": 1474.0,
      "PixelRepresentation": 0,
      "PixelSpacing": [3.203125, 3.203125],
      "ProtocolName": "EcL4-3.2m-40-1474-1s-55e",
      "RepetitionTime": 1000.0,
      "Rows": 448,
      "SAR": 0.03725875564446,
      "SamplesPerPixel": 1,
      "ScanOptions": "FS",
      "ScanningSequence": "EP",
      "SequenceName": "epfid2d1_64",
      "SequenceVariant": [
        "SK",
        "SS"
],
      "SeriesDescription": "EcL4-3.2m-40-1474-1s-55e",
      "SeriesNumber": 5,
      "SeriesTime": "181013.593000",
      "SliceLocation": -36.902080758474,
      "SliceThickness": 3.2000000476837,
      "SmallestImagePixelValue": 0,
      "SoftwareVersions": "syngo MR B17",
      "SpacingBetweenSlices": 3.1999999649938,
      "SpecificCharacterSet": "ISO_IR 100",
      "StudyID": "1",
      "StudyTime": "173044.093000",
      "TransmitCoilName": "Body",
      "VariableFlipAngleFlag": "N",
      "WindowCenterWidthExplanation": "Algo1",
      "dBdt": 0.0},
    "slices": {}
  },
  "time": {
    "samples": {
      "AcquisitionNumber": [1, 2, 3, 4, 5, 6, 7, 8, 9, 10, 11, 12, 13, 14, 15, 16, 17, 18, 19, 20, 21, 22, 23, 24, 25, 26, 27, 28, 29, 30, 31, 32, 33, 34, 35, 36, 37, 38, 39, 40, 41, 42, 43, 44, 45, 46, 47, 48, 49, 50, 51, 52, 53, 54, 55, 56, 57, 58, 59, 60, 61, 62, 63, 64, 65, 66, 67, 68, 69, 70, 71, 72, 73, 74, 75, 76, 77, 78, 79, 80, 81, 82, 83, 84, 85, 86, 87, 88, 89, 90, 91, 92, 93, 94, 95, 96, 97, 98, 99, 100, 101, 102, 103, 104, 105, 106, 107, 108, 109, 110, 111, 112, 113, 114, 115, 116, 117, 118, 119, 120, 121, 122, 123, 124, 125, 126, 127, 128, 129, 130, 131, 132, 133, 134, 135, 136, 137, 138, 139, 140, 141, 142, 143, 144, 145, 146, 147, 148, 149, 150, 151, 152, 153, 154, 155, 156, 157, 158, 159, 160, 161, 162, 163, 164, 165, 166, 167, 168, 169, 170, 171, 172, 173, 174, 175, 176, 177, 178, 179, 180, 181, 182, 183, 184, 185, 186, 187, 188, 189, 190, 191, 192, 193, 194, 195, 196, 197, 198, 199, 200, 201, 202, 203, 204, 205, 206, 207, 208, 209, 210, 211, 212, 213, 214, 215, 216, 217, 218, 219, 220, 221, 222, 223, 224, 225, 226, 227, 228, 229, 230, 231, 232, 233, 234, 235, 236, 237, 238, 239, 240, 241, 242, 243, 244, 245, 246, 247, 248, 249, 250, 251, 252, 253, 254, 255, 256, 257, 258, 259, 260, 261, 262, 263, 264, 265, 266, 267, 268, 269, 270, 271, 272, 273, 274, 275, 276, 277, 278, 279, 280, 281, 282, 283, 284, 285, 286, 287, 288, 289, 290, 291, 292, 293, 294, 295, 296, 297, 298, 299, 300, 301, 302, 303, 304, 305, 306, 307, 308, 309, 310, 311, 312, 313, 314, 315, 316, 317, 318, 319, 320, 321, 322, 323, 324, 325, 326, 327, 328, 329, 330, 331, 332, 333, 334, 335, 336, 337, 338, 339, 340, 341, 342, 343, 344, 345, 346, 347, 348, 349, 350, 351, 352, 353, 354, 355, 356, 357, 358, 359, 360, 361, 362, 363, 364, 365, 366, 367, 368, 369, 370, 371, 372, 373, 374, 375, 376, 377, 378, 379, 380, 381, 382, 383, 384, 385, 386, 387, 388, 389, 390, 391, 392, 393, 394, 395, 396, 397, 398, 399, 400, 401, 402, 403, 404, 405, 406, 407, 408, 409, 410, 411, 412, 413, 414, 415, 416, 417, 418, 419, 420, 421, 422, 423, 424, 425, 426, 427, 428, 429, 430, 431, 432, 433, 434, 435, 436, 437, 438, 439, 440, 441, 442, 443, 444, 445, 446, 447, 448, 449, 450, 451, 452, 453, 454, 455, 456, 457, 458, 459, 460, 461, 462, 463, 464, 465, 466, 467, 468, 469, 470, 471, 472, 473, 474, 475, 476, 477, 478, 479, 480, 481, 482, 483, 484, 485, 486, 487, 488, 489, 490, 491, 492, 493, 494, 495, 496, 497, 498, 499, 500, 501, 502, 503, 504, 505, 506, 507, 508, 509, 510, 511, 512, 513, 514, 515, 516, 517, 518, 519, 520, 521, 522, 523, 524, 525, 526, 527, 528, 529, 530, 531, 532, 533, 534, 535, 536, 537, 538, 539, 540, 541, 542, 543, 544, 545, 546, 547, 548, 549, 550, 551, 552, 553, 554, 555, 556, 557, 558, 559, 560, 561, 562, 563, 564, 565, 566, 567, 568, 569, 570, 571, 572, 573, 574, 575, 576, 577, 578, 579, 580, 581, 582, 583, 584, 585, 586, 587, 588, 589, 590, 591, 592, 593, 594, 595, 596, 597, 598, 599, 600, 601, 602, 603, 604, 605, 606, 607, 608, 609, 610, 611, 612, 613, 614, 615, 616, 617, 618, 619, 620, 621, 622, 623, 624, 625, 626, 627, 628, 629, 630, 631, 632, 633, 634, 635, 636, 637, 638, 639, 640, 641, 642, 643, 644, 645, 646, 647, 648, 649, 650, 651, 652, 653, 654, 655, 656, 657, 658, 659, 660, 661, 662, 663, 664, 665, 666, 667, 668, 669, 670, 671, 672, 673, 674, 675, 676, 677, 678, 679, 680, 681, 682, 683, 684, 685, 686, 687, 688, 689, 690, 691, 692, 693, 694, 695, 696, 697, 698, 699, 700, 701, 702, 703, 704, 705, 706, 707, 708, 709, 710, 711, 712, 713, 714, 715, 716, 717, 718, 719, 720, 721, 722, 723, 724, 725, 726, 727, 728, 729, 730, 731, 732, 733, 734, 735, 736, 737, 738, 739, 740, 741, 742, 743, 744, 745, 746, 747, 748, 749, 750, 751, 752, 753, 754, 755, 756, 757, 758, 759, 760, 761, 762, 763, 764, 765, 766, 767, 768, 769, 770, 771, 772, 773, 774, 775, 776, 777, 778, 779, 780, 781, 782, 783, 784, 785, 786, 787, 788, 789, 790, 791, 792, 793, 794, 795, 796, 797, 798, 799, 800, 801, 802, 803, 804, 805, 806, 807, 808, 809, 810, 811, 812, 813, 814, 815, 816, 817, 818, 819, 820, 821, 822, 823, 824, 825, 826, 827, 828, 829, 830, 831, 832, 833, 834, 835, 836, 837, 838, 839, 840, 841, 842, 843, 844, 845, 846, 847, 848, 849, 850, 851, 852, 853, 854, 855, 856, 857, 858, 859, 860, 861, 862, 863, 864, 865, 866, 867, 868, 869, 870, 871, 872, 873, 874, 875, 876, 877, 878, 879, 880, 881, 882, 883, 884, 885, 886, 887, 888, 889, 890, 891, 892, 893, 894, 895, 896, 897, 898, 899, 900, 901, 902, 903, 904, 905, 906, 907, 908, 909, 910, 911, 912, 913, 914, 915, 916, 917, 918, 919, 920, 921, 922, 923, 924, 925, 926, 927, 928, 929, 930, 931, 932, 933, 934, 935, 936, 937, 938, 939, 940, 941, 942, 943, 944, 945, 946, 947, 948, 949, 950, 951, 952, 953, 954, 955, 956, 957, 958, 959, 960, 961, 962, 963, 964, 965, 966, 967, 968, 969, 970, 971, 972, 973, 974, 975, 976, 977, 978, 979, 980, 981, 982, 983, 984, 985, 986, 987, 988, 989, 990, 991, 992, 993, 994, 995, 996, 997, 998, 999, 1000, 1001, 1002, 1003, 1004, 1005, 1006, 1007, 1008, 1009, 1010, 1011, 1012, 1013, 1014, 1015, 1016, 1017, 1018, 1019, 1020, 1021, 1022, 1023, 1024, 1025, 1026, 1027, 1028, 1029, 1030, 1031, 1032, 1033, 1034, 1035, 1036, 1037, 1038, 1039, 1040, 1041, 1042, 1043, 1044, 1045, 1046, 1047, 1048, 1049, 1050, 1051, 1052, 1053, 1054, 1055, 1056, 1057, 1058, 1059, 1060, 1061, 1062, 1063, 1064, 1065, 1066, 1067, 1068, 1069, 1070, 1071, 1072, 1073, 1074, 1075, 1076, 1077, 1078, 1079, 1080, 1081, 1082, 1083, 1084, 1085, 1086, 1087, 1088, 1089, 1090, 1091, 1092, 1093, 1094, 1095, 1096, 1097, 1098, 1099, 1100, 1101, 1102, 1103, 1104, 1105, 1106, 1107, 1108, 1109, 1110, 1111, 1112, 1113, 1114, 1115, 1116, 1117, 1118, 1119, 1120, 1121, 1122, 1123, 1124, 1125, 1126, 1127],
      "AcquisitionTime": ["180934.787500", "180935.790000", "180936.795000", "180937.800000", "180938.802500", "180939.807500", "180940.810000", "180941.815000", "180942.820000", "180943.822500", "180944.827500", "180945.830000", "180946.835000", "180947.840000", "180948.842500", "180949.847500", "180950.850000", "180951.855000", "180952.860000", "180953.862500", "180954.867500", "180955.870000", "180956.875000", "180957.880000", "180958.882500", "180959.887500", "181000.890000", "181001.895000", "181002.900000", "181003.902500", "181004.907500", "181005.910000", "181006.915000", "181007.920000", "181008.922500", "181009.927500", "181010.932500", "181011.935000", "181012.940000", "181013.942500", "181014.947500", "181015.952500", "181016.955000", "181017.960000", "181018.962500", "181019.967500", "181020.972500", "181021.975000", "181022.980000", "181023.982500", "181024.987500", "181025.992500", "181026.995000", "181028.000000", "181029.002500", "181030.007500", "181031.012500", "181032.015000", "181033.020000", "181034.022500", "181035.027500", "181036.032500", "181037.035000", "181038.040000", "181039.045000", "181040.047500", "181041.052500", "181042.055000", "181043.060000", "181044.065000", "181045.067500", "181046.072500", "181047.075000", "181048.080000", "181049.085000", "181050.087500", "181051.092500", "181052.095000", "181053.100000", "181054.105000", "181055.107500", "181056.112500", "181057.115000", "181058.120000", "181059.125000", "181100.127500", "181101.132500", "181102.135000", "181103.140000", "181104.145000", "181105.147500", "181106.152500", "181107.155000", "181108.160000", "181109.165000", "181110.167500", "181111.172500", "181112.177500", "181113.180000", "181114.185000", "181115.187500", "181116.192500", "181117.197500", "181118.200000", "181119.205000", "181120.207500", "181121.212500", "181122.217500", "181123.220000", "181124.225000", "181125.227500", "181126.232500", "181127.237500", "181128.240000", "181129.245000", "181130.247500", "181131.252500", "181132.257500", "181133.260000", "181134.265000", "181135.267500", "181136.272500", "181137.277500", "181138.280000", "181139.285000", "181140.287500", "181141.292500", "181142.297500", "181143.300000", "181144.305000", "181145.310000", "181146.312500", "181147.317500", "181148.320000", "181149.325000", "181150.330000", "181151.332500", "181152.337500", "181153.340000", "181154.345000", "181155.350000", "181156.352500", "181157.357500", "181158.360000", "181159.365000", "181200.370000", "181201.372500", "181202.377500", "181203.380000", "181204.385000", "181205.390000", "181206.392500", "181207.397500", "181208.400000", "181209.405000", "181210.410000", "181211.412500", "181212.417500", "181213.422500", "181214.425000", "181215.430000", "181216.432500", "181217.437500", "181218.442500", "181219.445000", "181220.450000", "181221.452500", "181222.457500", "181223.462500", "181224.465000", "181225.470000", "181226.472500", "181227.477500", "181228.482500", "181229.485000", "181230.490000", "181231.492500", "181232.497500", "181233.502500", "181234.505000", "181235.510000", "181236.512500", "181237.517500", "181238.522500", "181239.525000", "181240.530000", "181241.532500", "181242.537500", "181243.542500", "181244.545000", "181245.550000", "181246.555000", "181247.557500", "181248.562500", "181249.565000", "181250.570000", "181251.575000", "181252.577500", "181253.582500", "181254.585000", "181255.590000", "181256.595000", "181257.597500", "181258.602500", "181259.605000", "181300.610000", "181301.615000", "181302.617500", "181303.622500", "181304.625000", "181305.630000", "181306.635000", "181307.637500", "181308.642500", "181309.645000", "181310.650000", "181311.655000", "181312.657500", "181313.662500", "181314.667500", "181315.670000", "181316.675000", "181317.677500", "181318.682500", "181319.687500", "181320.690000", "181321.695000", "181322.697500", "181323.702500", "181324.707500", "181325.710000", "181326.715000", "181327.717500", "181328.722500", "181329.727500", "181330.730000", "181331.735000", "181332.737500", "181333.742500", "181334.747500", "181335.750000", "181336.755000", "181337.757500", "181338.762500", "181339.767500", "181340.770000", "181341.775000", "181342.777500", "181343.782500", "181344.787500", "181345.790000", "181346.795000", "181347.800000", "181348.802500", "181349.807500", "181350.810000", "181351.815000", "181352.820000", "181353.822500", "181354.827500", "181355.830000", "181356.835000", "181357.840000", "181358.842500", "181359.847500", "181400.850000", "181401.855000", "181402.860000", "181403.862500", "181404.867500", "181405.870000", "181406.875000", "181407.880000", "181408.882500", "181409.887500", "181410.890000", "181411.895000", "181412.900000", "181413.902500", "181414.907500", "181415.910000", "181416.915000", "181417.920000", "181418.922500", "181419.927500", "181420.932500", "181421.935000", "181422.940000", "181423.942500", "181424.947500", "181425.952500", "181426.955000", "181427.960000", "181428.962500", "181429.967500", "181430.972500", "181431.975000", "181432.980000", "181433.982500", "181434.987500", "181435.992500", "181436.995000", "181438.000000", "181439.002500", "181440.007500", "181441.012500", "181442.015000", "181443.020000", "181444.022500", "181445.027500", "181446.032500", "181447.035000", "181448.040000", "181449.045000", "181450.047500", "181451.052500", "181452.055000", "181453.060000", "181454.065000", "181455.067500", "181456.072500", "181457.075000", "181458.080000", "181459.085000", "181500.087500", "181501.092500", "181502.095000", "181503.100000", "181504.105000", "181505.107500", "181506.112500", "181507.115000", "181508.120000", "181509.125000", "181510.127500", "181511.132500", "181512.135000", "181513.140000", "181514.145000", "181515.147500", "181516.152500", "181517.155000", "181518.160000", "181519.165000", "181520.167500", "181521.172500", "181522.177500", "181523.180000", "181524.185000", "181525.187500", "181526.192500", "181527.197500", "181528.200000", "181529.205000", "181530.207500", "181531.212500", "181532.217500", "181533.220000", "181534.225000", "181535.227500", "181536.232500", "181537.237500", "181538.240000", "181539.245000", "181540.247500", "181541.252500", "181542.257500", "181543.260000", "181544.265000", "181545.267500", "181546.272500", "181547.277500", "181548.280000", "181549.285000", "181550.287500", "181551.292500", "181552.297500", "181553.300000", "181554.305000", "181555.310000", "181556.312500", "181557.317500", "181558.320000", "181559.325000", "181600.330000", "181601.332500", "181602.337500", "181603.340000", "181604.345000", "181605.350000", "181606.352500", "181607.357500", "181608.360000", "181609.365000", "181610.370000", "181611.372500", "181612.377500", "181613.380000", "181614.385000", "181615.390000", "181616.392500", "181617.397500", "181618.400000", "181619.405000", "181620.410000", "181621.412500", "181622.417500", "181623.422500", "181624.425000", "181625.430000", "181626.432500", "181627.437500", "181628.442500", "181629.445000", "181630.450000", "181631.452500", "181632.457500", "181633.462500", "181634.465000", "181635.470000", "181636.472500", "181637.477500", "181638.482500", "181639.485000", "181640.490000", "181641.492500", "181642.497500", "181643.502500", "181644.505000", "181645.510000", "181646.512500", "181647.517500", "181648.522500", "181649.525000", "181650.530000", "181651.532500", "181652.537500", "181653.542500", "181654.545000", "181655.550000", "181656.555000", "181657.557500", "181658.562500", "181659.565000", "181700.570000", "181701.575000", "181702.577500", "181703.582500", "181704.585000", "181705.590000", "181706.595000", "181707.597500", "181708.602500", "181709.605000", "181710.610000", "181711.615000", "181712.617500", "181713.622500", "181714.625000", "181715.630000", "181716.635000", "181717.637500", "181718.642500", "181719.645000", "181720.650000", "181721.655000", "181722.657500", "181723.662500", "181724.667500", "181725.670000", "181726.675000", "181727.677500", "181728.682500", "181729.687500", "181730.690000", "181731.695000", "181732.697500", "181733.702500", "181734.707500", "181735.710000", "181736.715000", "181737.717500", "181738.722500", "181739.727500", "181740.730000", "181741.735000", "181742.737500", "181743.742500", "181744.747500", "181745.750000", "181746.755000", "181747.757500", "181748.762500", "181749.767500", "181750.770000", "181751.775000", "181752.777500", "181753.782500", "181754.787500", "181755.790000", "181756.795000", "181757.800000", "181758.802500", "181759.807500", "181800.810000", "181801.815000", "181802.820000", "181803.822500", "181804.827500", "181805.830000", "181806.835000", "181807.840000", "181808.842500", "181809.847500", "181810.850000", "181811.855000", "181812.860000", "181813.862500", "181814.867500", "181815.870000", "181816.875000", "181817.880000", "181818.882500", "181819.887500", "181820.890000", "181821.895000", "181822.900000", "181823.902500", "181824.907500", "181825.910000", "181826.915000", "181827.920000", "181828.922500", "181829.927500", "181830.932500", "181831.935000", "181832.940000", "181833.942500", "181834.947500", "181835.952500", "181836.955000", "181837.960000", "181838.962500", "181839.967500", "181840.972500", "181841.975000", "181842.980000", "181843.982500", "181844.987500", "181845.992500", "181846.995000", "181848.000000", "181849.002500", "181850.007500", "181851.012500", "181852.015000", "181853.020000", "181854.022500", "181855.027500", "181856.032500", "181857.035000", "181858.040000", "181859.045000", "181900.047500", "181901.052500", "181902.055000", "181903.060000", "181904.065000", "181905.067500", "181906.072500", "181907.075000", "181908.080000", "181909.085000", "181910.087500", "181911.092500", "181912.095000", "181913.100000", "181914.105000", "181915.107500", "181916.112500", "181917.115000", "181918.120000", "181919.125000", "181920.127500", "181921.132500", "181922.135000", "181923.140000", "181924.145000", "181925.147500", "181926.152500", "181927.155000", "181928.160000", "181929.165000", "181930.167500", "181931.172500", "181932.177500", "181933.180000", "181934.185000", "181935.187500", "181936.192500", "181937.197500", "181938.200000", "181939.205000", "181940.207500", "181941.212500", "181942.217500", "181943.220000", "181944.225000", "181945.227500", "181946.232500", "181947.237500", "181948.240000", "181949.245000", "181950.247500", "181951.252500", "181952.257500", "181953.260000", "181954.265000", "181955.267500", "181956.272500", "181957.277500", "181958.280000", "181959.285000", "182000.287500", "182001.292500", "182002.297500", "182003.300000", "182004.305000", "182005.310000", "182006.312500", "182007.317500", "182008.320000", "182009.325000", "182010.330000", "182011.332500", "182012.337500", "182013.340000", "182014.345000", "182015.350000", "182016.352500", "182017.357500", "182018.360000", "182019.365000", "182020.370000", "182021.372500", "182022.377500", "182023.380000", "182024.385000", "182025.390000", "182026.392500", "182027.397500", "182028.400000", "182029.405000", "182030.410000", "182031.412500", "182032.417500", "182033.422500", "182034.425000", "182035.430000", "182036.432500", "182037.437500", "182038.442500", "182039.445000", "182040.450000", "182041.452500", "182042.457500", "182043.462500", "182044.465000", "182045.470000", "182046.472500", "182047.477500", "182048.482500", "182049.485000", "182050.490000", "182051.492500", "182052.497500", "182053.502500", "182054.505000", "182055.510000", "182056.512500", "182057.517500", "182058.522500", "182059.525000", "182100.530000", "182101.532500", "182102.537500", "182103.542500", "182104.545000", "182105.550000", "182106.555000", "182107.557500", "182108.562500", "182109.565000", "182110.570000", "182111.575000", "182112.577500", "182113.582500", "182114.585000", "182115.590000", "182116.595000", "182117.597500", "182118.602500", "182119.605000", "182120.610000", "182121.615000", "182122.617500", "182123.622500", "182124.625000", "182125.630000", "182126.635000", "182127.637500", "182128.642500", "182129.645000", "182130.650000", "182131.655000", "182132.657500", "182133.662500", "182134.667500", "182135.670000", "182136.675000", "182137.677500", "182138.682500", "182139.687500", "182140.690000", "182141.695000", "182142.697500", "182143.702500", "182144.707500", "182145.710000", "182146.715000", "182147.717500", "182148.722500", "182149.727500", "182150.730000", "182151.735000", "182152.737500", "182153.742500", "182154.747500", "182155.750000", "182156.755000", "182157.757500", "182158.762500", "182159.767500", "182200.770000", "182201.775000", "182202.777500", "182203.782500", "182204.787500", "182205.790000", "182206.795000", "182207.800000", "182208.802500", "182209.807500", "182210.810000", "182211.815000", "182212.820000", "182213.822500", "182214.827500", "182215.830000", "182216.835000", "182217.840000", "182218.842500", "182219.847500", "182220.850000", "182221.855000", "182222.860000", "182223.862500", "182224.867500", "182225.870000", "182226.875000", "182227.880000", "182228.882500", "182229.887500", "182230.890000", "182231.895000", "182232.900000", "182233.902500", "182234.907500", "182235.910000", "182236.915000", "182237.920000", "182238.922500", "182239.927500", "182240.932500", "182241.935000", "182242.940000", "182243.942500", "182244.947500", "182245.952500", "182246.955000", "182247.960000", "182248.962500", "182249.967500", "182250.972500", "182251.975000", "182252.980000", "182253.982500", "182254.987500", "182255.992500", "182256.995000", "182258.000000", "182259.002500", "182300.007500", "182301.012500", "182302.015000", "182303.020000", "182304.022500", "182305.027500", "182306.032500", "182307.035000", "182308.040000", "182309.045000", "182310.047500", "182311.052500", "182312.055000", "182313.060000", "182314.065000", "182315.067500", "182316.072500", "182317.075000", "182318.080000", "182319.085000", "182320.087500", "182321.092500", "182322.095000", "182323.100000", "182324.105000", "182325.107500", "182326.112500", "182327.115000", "182328.120000", "182329.125000", "182330.127500", "182331.132500", "182332.135000", "182333.140000", "182334.145000", "182335.147500", "182336.152500", "182337.155000", "182338.160000", "182339.165000", "182340.167500", "182341.172500", "182342.177500", "182343.180000", "182344.185000", "182345.187500", "182346.192500", "182347.197500", "182348.200000", "182349.205000", "182350.207500", "182351.212500", "182352.217500", "182353.220000", "182354.225000", "182355.227500", "182356.232500", "182357.237500", "182358.240000", "182359.245000", "182400.247500", "182401.252500", "182402.257500", "182403.260000", "182404.265000", "182405.267500", "182406.272500", "182407.277500", "182408.280000", "182409.285000", "182410.287500", "182411.292500", "182412.297500", "182413.300000", "182414.305000", "182415.310000", "182416.312500", "182417.317500", "182418.320000", "182419.325000", "182420.330000", "182421.332500", "182422.337500", "182423.340000", "182424.345000", "182425.350000", "182426.352500", "182427.357500", "182428.360000", "182429.365000", "182430.370000", "182431.372500", "182432.377500", "182433.380000", "182434.385000", "182435.390000", "182436.392500", "182437.397500", "182438.400000", "182439.405000", "182440.410000", "182441.412500", "182442.417500", "182443.422500", "182444.425000", "182445.430000", "182446.432500", "182447.437500", "182448.442500", "182449.445000", "182450.450000", "182451.452500", "182452.457500", "182453.462500", "182454.465000", "182455.470000", "182456.472500", "182457.477500", "182458.482500", "182459.485000", "182500.490000", "182501.492500", "182502.497500", "182503.502500", "182504.505000", "182505.510000", "182506.512500", "182507.517500", "182508.522500", "182509.525000", "182510.530000", "182511.532500", "182512.537500", "182513.542500", "182514.545000", "182515.550000", "182516.555000", "182517.557500", "182518.562500", "182519.565000", "182520.570000", "182521.575000", "182522.577500", "182523.582500", "182524.585000", "182525.590000", "182526.595000", "182527.597500", "182528.602500", "182529.605000", "182530.610000", "182531.615000", "182532.617500", "182533.622500", "182534.625000", "182535.630000", "182536.635000", "182537.637500", "182538.642500", "182539.645000", "182540.650000", "182541.655000", "182542.657500", "182543.662500", "182544.667500", "182545.670000", "182546.675000", "182547.677500", "182548.682500", "182549.687500", "182550.690000", "182551.695000", "182552.697500", "182553.702500", "182554.707500", "182555.710000", "182556.715000", "182557.717500", "182558.722500", "182559.727500", "182600.730000", "182601.735000", "182602.737500", "182603.742500", "182604.747500", "182605.750000", "182606.755000", "182607.757500", "182608.762500", "182609.767500", "182610.770000", "182611.775000", "182612.777500", "182613.782500", "182614.787500", "182615.790000", "182616.795000", "182617.800000", "182618.802500", "182619.807500", "182620.810000", "182621.815000", "182622.820000", "182623.822500", "182624.827500", "182625.830000", "182626.835000", "182627.840000", "182628.842500", "182629.847500", "182630.850000", "182631.855000", "182632.860000", "182633.862500", "182634.867500", "182635.870000", "182636.875000", "182637.880000", "182638.882500", "182639.887500", "182640.890000", "182641.895000", "182642.900000", "182643.902500", "182644.907500", "182645.910000", "182646.915000", "182647.920000", "182648.922500", "182649.927500", "182650.932500", "182651.935000", "182652.940000", "182653.942500", "182654.947500", "182655.952500", "182656.955000", "182657.960000", "182658.962500", "182659.967500", "182700.972500", "182701.975000", "182702.980000", "182703.982500", "182704.987500", "182705.992500", "182706.995000", "182708.000000", "182709.002500", "182710.007500", "182711.012500", "182712.015000", "182713.020000", "182714.022500", "182715.027500", "182716.032500", "182717.035000", "182718.040000", "182719.045000", "182720.047500", "182721.052500", "182722.055000", "182723.060000", "182724.065000", "182725.067500", "182726.072500", "182727.075000", "182728.080000", "182729.085000", "182730.087500", "182731.092500", "182732.095000", "182733.100000", "182734.105000", "182735.107500", "182736.112500", "182737.115000", "182738.120000", "182739.125000", "182740.127500", "182741.132500", "182742.135000", "182743.140000", "182744.145000", "182745.147500", "182746.152500", "182747.155000", "182748.160000", "182749.165000", "182750.167500", "182751.172500", "182752.177500", "182753.180000", "182754.185000", "182755.187500", "182756.192500", "182757.197500", "182758.200000", "182759.205000", "182800.207500", "182801.212500", "182802.217500", "182803.220000", "182804.225000", "182805.227500", "182806.232500", "182807.237500", "182808.240000", "182809.245000", "182810.247500", "182811.252500", "182812.257500", "182813.260000", "182814.265000", "182815.267500", "182816.272500", "182817.277500", "182818.280000", "182819.285000", "182820.287500", "182821.292500", "182822.297500", "182823.300000", "182824.305000", "182825.310000"],
