{
  "AcquisitionMatrixPE": 64,
  "AcquisitionNumber": 1,
  "AcquisitionTime": "18:35:43.250000",
  "BandwidthPerPixelPhaseEncode": 19.531,
  "BaseResolution": 64,
  "CoilString": "C:HEA;HEP",
  "ConversionSoftware": "dcm2niix",
  "ConversionSoftwareVersion": "v1.0.20190902",
  "DerivedVendorReportedEchoSpacing": 0.00080001,
  "DeviceSerialNumber": "26099",
  "DwellTime": 5.3e-06,
  "EchoTime": 0.0548,
  "EffectiveEchoSpacing": 0.00080001,
  "FlipAngle": 75,
  "ImageComments": "Unaliased_MB4_PE3_LB_SENSE1",
  "ImageOrientationPatientDICOM": [1, 0, 0, 0, 0.95424, -0.299041],
  "ImageType": [
    "ORIGINAL",
    "PRIMARY",
    "M",
    "MB",
    "ND",
    "MOSAIC"
],
  "ImagingFrequency": 63.6394,
  "InPlanePhaseEncodingDirectionDICOM": "COL",
  "InstitutionAddress": "Bedford_Way_26_London_London_GB_WC1H_0AP",
  "InstitutionName": "University_College",
  "InstitutionalDepartmentName": "Department",
  "MRAcquisitionType": "2D",
  "MagneticFieldStrength": 1.5,
  "Manufacturer": "Siemens",
  "ManufacturersModelName": "Avanto",
  "Modality": "MR",
  "MultibandAccelerationFactor": 4,
  "PartialFourier": 1,
  "PatientPosition": "HFS",
  "PercentPhaseFOV": 100,
  "PhaseEncodingDirection": "j-",
  "PhaseEncodingSteps": 64,
  "PhaseResolution": 1,
  "PixelBandwidth": 1474,
  "ProcedureStepDescription": "ucl_bbk_Jeremy",
  "ProtocolName": "EcL4-3.2m-40-1474-1s-55e",
  "PulseSequenceDetails": "%CustomerSeq%_cmrr_mbep2d_bold",
  "ReceiveCoilName": "32Ch_Head",
  "ReconMatrixPE": 64,
  "RepetitionTime": 1,
  "SAR": 0.0375487,
  "ScanOptions": "FS",
  "ScanningSequence": "EP",
  "SequenceName": "epfid2d1_64",
  "SequenceVariant": "SK_SS",
  "SeriesDescription": "EcL4-3.2m-40-1474-1s-55e",
  "SeriesNumber": 5,
  "ShimSetting": [183, -37, 386, 982, -82, 181, -534, 59],
  "SliceThickness": 3.2,
  "SliceTiming": [0, 0.7025, 0.4025, 0.1, 0.8025, 0.5025, 0.2, 0.9025, 0.6025, 0.3, 0, 0.7025, 0.4025, 0.1, 0.8025, 0.5025, 0.2, 0.9025, 0.6025, 0.3, 0, 0.7025, 0.4025, 0.1, 0.8025, 0.5025, 0.2, 0.9025, 0.6025, 0.3, 0, 0.7025, 0.4025, 0.1, 0.8025, 0.5025, 0.2, 0.9025, 0.6025, 0.3],
  "SoftwareVersions": "syngo_MR_B17",
  "SpacingBetweenSlices": 3.2,
  "StationName": "MRC26099",
  "TaskName": "12yearsaslave",
  "CogAtlasID": "http://www.cognitiveatlas.org/task/id/tsk_jbg1oF4D9OTkO/",
  "TotalReadoutTime": 0.0504006,
  "TxRefAmp": 218.058,
  "dcmmeta_affine": [
    [-3.203125, 0.0, 0.0, 102.5],
    [0.0, 3.056550979614258, -0.9569305181503296, -74.34959411621094],
    [0.0, 0.9578650593757629, 3.0535690784454346, -69.577392578125],
    [0.0, 0.0, 0.0, 1.0]
],
  "dcmmeta_reorient_transform": [
    [0.0, -1.0, 0.0, 63.0],
    [1.0, 0.0, 0.0, 0.0],
    [0.0, 0.0, 1.0, 0.0],
    [0.0, 0.0, 0.0, 1.0]
],
  "dcmmeta_shape": [64, 64, 40, 1638],
  "dcmmeta_slice_dim": 2,
  "dcmmeta_version": 0.6,
  "global": {
    "const": {
      "AcquisitionMatrix": [64, 0, 0, 64],
      "AngioFlag": "N",
      "BitsAllocated": 16,
      "BitsStored": 12,
      "Columns": 448,
      "EchoNumbers": 1,
      "EchoTime": 54.8,
      "EchoTrainLength": 1,
      "FlipAngle": 75.0,
      "HighBit": 11,
      "ImageOrientationPatient": [1.0, 0.0, 0.0, 0.0, 0.95424032651267, -0.2990407986496],
      "ImagePositionPatient": [-717.5, -705.07092052467, 174.67819377694],
      "ImageType": [
        "ORIGINAL",
        "PRIMARY",
        "M",
        "MB",
        "ND",
        "MOSAIC"
],
      "ImagedNucleus": "1H",
      "ImagingFrequency": 63.639361,
      "InPlanePhaseEncodingDirection": "COL",
      "MRAcquisitionType": "2D",
      "MagneticFieldStrength": 1.5,
      "Manufacturer": "SIEMENS",
      "ManufacturerModelName": "Avanto",
      "Modality": "MR",
      "NumberOfAverages": 1.0,
      "NumberOfPhaseEncodingSteps": 64,
      "PercentPhaseFieldOfView": 100.0,
      "PercentSampling": 100.0,
      "PerformedProcedureStepStartTime": "174026.593000",
      "PhotometricInterpretation": "MONOCHROME2",
      "PixelBandwidth": 1474.0,
      "PixelRepresentation": 0,
      "PixelSpacing": [3.203125, 3.203125],
      "ProtocolName": "EcL4-3.2m-40-1474-1s-55e",
      "RepetitionTime": 1000.0,
      "Rows": 448,
      "SAR": 0.0375487091888,
      "SamplesPerPixel": 1,
      "ScanOptions": "FS",
      "ScanningSequence": "EP",
      "SequenceName": "epfid2d1_64",
      "SequenceVariant": [
        "SK",
        "SS"
],
      "SeriesDescription": "EcL4-3.2m-40-1474-1s-55e",
      "SeriesNumber": 5,
      "SeriesTime": "183627.656000",
      "SliceLocation": -44.159994513958,
      "SliceThickness": 3.2000000476837,
      "SmallestImagePixelValue": 0,
      "SoftwareVersions": "syngo MR B17",
      "SpacingBetweenSlices": 3.1999999521052,
      "SpecificCharacterSet": "ISO_IR 100",
      "StudyID": "1",
      "StudyTime": "174026.546000",
      "TransmitCoilName": "Body",
      "VariableFlipAngleFlag": "N",
      "WindowCenterWidthExplanation": "Algo1",
      "dBdt": 0.0},
    "slices": {}
  },
  "time": {
    "samples": {
      "AcquisitionNumber": [1, 2, 3, 4, 5, 6, 7, 8, 9, 10, 11, 12, 13, 14, 15, 16, 17, 18, 19, 20, 21, 22, 23, 24, 25, 26, 27, 28, 29, 30, 31, 32, 33, 34, 35, 36, 37, 38, 39, 40, 41, 42, 43, 44, 45, 46, 47, 48, 49, 50, 51, 52, 53, 54, 55, 56, 57, 58, 59, 60, 61, 62, 63, 64, 65, 66, 67, 68, 69, 70, 71, 72, 73, 74, 75, 76, 77, 78, 79, 80, 81, 82, 83, 84, 85, 86, 87, 88, 89, 90, 91, 92, 93, 94, 95, 96, 97, 98, 99, 100, 101, 102, 103, 104, 105, 106, 107, 108, 109, 110, 111, 112, 113, 114, 115, 116, 117, 118, 119, 120, 121, 122, 123, 124, 125, 126, 127, 128, 129, 130, 131, 132, 133, 134, 135, 136, 137, 138, 139, 140, 141, 142, 143, 144, 145, 146, 147, 148, 149, 150, 151, 152, 153, 154, 155, 156, 157, 158, 159, 160, 161, 162, 163, 164, 165, 166, 167, 168, 169, 170, 171, 172, 173, 174, 175, 176, 177, 178, 179, 180, 181, 182, 183, 184, 185, 186, 187, 188, 189, 190, 191, 192, 193, 194, 195, 196, 197, 198, 199, 200, 201, 202, 203, 204, 205, 206, 207, 208, 209, 210, 211, 212, 213, 214, 215, 216, 217, 218, 219, 220, 221, 222, 223, 224, 225, 226, 227, 228, 229, 230, 231, 232, 233, 234, 235, 236, 237, 238, 239, 240, 241, 242, 243, 244, 245, 246, 247, 248, 249, 250, 251, 252, 253, 254, 255, 256, 257, 258, 259, 260, 261, 262, 263, 264, 265, 266, 267, 268, 269, 270, 271, 272, 273, 274, 275, 276, 277, 278, 279, 280, 281, 282, 283, 284, 285, 286, 287, 288, 289, 290, 291, 292, 293, 294, 295, 296, 297, 298, 299, 300, 301, 302, 303, 304, 305, 306, 307, 308, 309, 310, 311, 312, 313, 314, 315, 316, 317, 318, 319, 320, 321, 322, 323, 324, 325, 326, 327, 328, 329, 330, 331, 332, 333, 334, 335, 336, 337, 338, 339, 340, 341, 342, 343, 344, 345, 346, 347, 348, 349, 350, 351, 352, 353, 354, 355, 356, 357, 358, 359, 360, 361, 362, 363, 364, 365, 366, 367, 368, 369, 370, 371, 372, 373, 374, 375, 376, 377, 378, 379, 380, 381, 382, 383, 384, 385, 386, 387, 388, 389, 390, 391, 392, 393, 394, 395, 396, 397, 398, 399, 400, 401, 402, 403, 404, 405, 406, 407, 408, 409, 410, 411, 412, 413, 414, 415, 416, 417, 418, 419, 420, 421, 422, 423, 424, 425, 426, 427, 428, 429, 430, 431, 432, 433, 434, 435, 436, 437, 438, 439, 440, 441, 442, 443, 444, 445, 446, 447, 448, 449, 450, 451, 452, 453, 454, 455, 456, 457, 458, 459, 460, 461, 462, 463, 464, 465, 466, 467, 468, 469, 470, 471, 472, 473, 474, 475, 476, 477, 478, 479, 480, 481, 482, 483, 484, 485, 486, 487, 488, 489, 490, 491, 492, 493, 494, 495, 496, 497, 498, 499, 500, 501, 502, 503, 504, 505, 506, 507, 508, 509, 510, 511, 512, 513, 514, 515, 516, 517, 518, 519, 520, 521, 522, 523, 524, 525, 526, 527, 528, 529, 530, 531, 532, 533, 534, 535, 536, 537, 538, 539, 540, 541, 542, 543, 544, 545, 546, 547, 548, 549, 550, 551, 552, 553, 554, 555, 556, 557, 558, 559, 560, 561, 562, 563, 564, 565, 566, 567, 568, 569, 570, 571, 572, 573, 574, 575, 576, 577, 578, 579, 580, 581, 582, 583, 584, 585, 586, 587, 588, 589, 590, 591, 592, 593, 594, 595, 596, 597, 598, 599, 600, 601, 602, 603, 604, 605, 606, 607, 608, 609, 610, 611, 612, 613, 614, 615, 616, 617, 618, 619, 620, 621, 622, 623, 624, 625, 626, 627, 628, 629, 630, 631, 632, 633, 634, 635, 636, 637, 638, 639, 640, 641, 642, 643, 644, 645, 646, 647, 648, 649, 650, 651, 652, 653, 654, 655, 656, 657, 658, 659, 660, 661, 662, 663, 664, 665, 666, 667, 668, 669, 670, 671, 672, 673, 674, 675, 676, 677, 678, 679, 680, 681, 682, 683, 684, 685, 686, 687, 688, 689, 690, 691, 692, 693, 694, 695, 696, 697, 698, 699, 700, 701, 702, 703, 704, 705, 706, 707, 708, 709, 710, 711, 712, 713, 714, 715, 716, 717, 718, 719, 720, 721, 722, 723, 724, 725, 726, 727, 728, 729, 730, 731, 732, 733, 734, 735, 736, 737, 738, 739, 740, 741, 742, 743, 744, 745, 746, 747, 748, 749, 750, 751, 752, 753, 754, 755, 756, 757, 758, 759, 760, 761, 762, 763, 764, 765, 766, 767, 768, 769, 770, 771, 772, 773, 774, 775, 776, 777, 778, 779, 780, 781, 782, 783, 784, 785, 786, 787, 788, 789, 790, 791, 792, 793, 794, 795, 796, 797, 798, 799, 800, 801, 802, 803, 804, 805, 806, 807, 808, 809, 810, 811, 812, 813, 814, 815, 816, 817, 818, 819, 820, 821, 822, 823, 824, 825, 826, 827, 828, 829, 830, 831, 832, 833, 834, 835, 836, 837, 838, 839, 840, 841, 842, 843, 844, 845, 846, 847, 848, 849, 850, 851, 852, 853, 854, 855, 856, 857, 858, 859, 860, 861, 862, 863, 864, 865, 866, 867, 868, 869, 870, 871, 872, 873, 874, 875, 876, 877, 878, 879, 880, 881, 882, 883, 884, 885, 886, 887, 888, 889, 890, 891, 892, 893, 894, 895, 896, 897, 898, 899, 900, 901, 902, 903, 904, 905, 906, 907, 908, 909, 910, 911, 912, 913, 914, 915, 916, 917, 918, 919, 920, 921, 922, 923, 924, 925, 926, 927, 928, 929, 930, 931, 932, 933, 934, 935, 936, 937, 938, 939, 940, 941, 942, 943, 944, 945, 946, 947, 948, 949, 950, 951, 952, 953, 954, 955, 956, 957, 958, 959, 960, 961, 962, 963, 964, 965, 966, 967, 968, 969, 970, 971, 972, 973, 974, 975, 976, 977, 978, 979, 980, 981, 982, 983, 984, 985, 986, 987, 988, 989, 990, 991, 992, 993, 994, 995, 996, 997, 998, 999, 1000, 1001, 1002, 1003, 1004, 1005, 1006, 1007, 1008, 1009, 1010, 1011, 1012, 1013, 1014, 1015, 1016, 1017, 1018, 1019, 1020, 1021, 1022, 1023, 1024, 1025, 1026, 1027, 1028, 1029, 1030, 1031, 1032, 1033, 1034, 1035, 1036, 1037, 1038, 1039, 1040, 1041, 1042, 1043, 1044, 1045, 1046, 1047, 1048, 1049, 1050, 1051, 1052, 1053, 1054, 1055, 1056, 1057, 1058, 1059, 1060, 1061, 1062, 1063, 1064, 1065, 1066, 1067, 1068, 1069, 1070, 1071, 1072, 1073, 1074, 1075, 1076, 1077, 1078, 1079, 1080, 1081, 1082, 1083, 1084, 1085, 1086, 1087, 1088, 1089, 1090, 1091, 1092, 1093, 1094, 1095, 1096, 1097, 1098, 1099, 1100, 1101, 1102, 1103, 1104, 1105, 1106, 1107, 1108, 1109, 1110, 1111, 1112, 1113, 1114, 1115, 1116, 1117, 1118, 1119, 1120, 1121, 1122, 1123, 1124, 1125, 1126, 1127, 1128, 1129, 1130, 1131, 1132, 1133, 1134, 1135, 1136, 1137, 1138, 1139, 1140, 1141, 1142, 1143, 1144, 1145, 1146, 1147, 1148, 1149, 1150, 1151, 1152, 1153, 1154, 1155, 1156, 1157, 1158, 1159, 1160, 1161, 1162, 1163, 1164, 1165, 1166, 1167, 1168, 1169, 1170, 1171, 1172, 1173, 1174, 1175, 1176, 1177, 1178, 1179, 1180, 1181, 1182, 1183, 1184, 1185, 1186, 1187, 1188, 1189, 1190, 1191, 1192, 1193, 1194, 1195, 1196, 1197, 1198, 1199, 1200, 1201, 1202, 1203, 1204, 1205, 1206, 1207, 1208, 1209, 1210, 1211, 1212, 1213, 1214, 1215, 1216, 1217, 1218, 1219, 1220, 1221, 1222, 1223, 1224, 1225, 1226, 1227, 1228, 1229, 1230, 1231, 1232, 1233, 1234, 1235, 1236, 1237, 1238, 1239, 1240, 1241, 1242, 1243, 1244, 1245, 1246, 1247, 1248, 1249, 1250, 1251, 1252, 1253, 1254, 1255, 1256, 1257, 1258, 1259, 1260, 1261, 1262, 1263, 1264, 1265, 1266, 1267, 1268, 1269, 1270, 1271, 1272, 1273, 1274, 1275, 1276, 1277, 1278, 1279, 1280, 1281, 1282, 1283, 1284, 1285, 1286, 1287, 1288, 1289, 1290, 1291, 1292, 1293, 1294, 1295, 1296, 1297, 1298, 1299, 1300, 1301, 1302, 1303, 1304, 1305, 1306, 1307, 1308, 1309, 1310, 1311, 1312, 1313, 1314, 1315, 1316, 1317, 1318, 1319, 1320, 1321, 1322, 1323, 1324, 1325, 1326, 1327, 1328, 1329, 1330, 1331, 1332, 1333, 1334, 1335, 1336, 1337, 1338, 1339, 1340, 1341, 1342, 1343, 1344, 1345, 1346, 1347, 1348, 1349, 1350, 1351, 1352, 1353, 1354, 1355, 1356, 1357, 1358, 1359, 1360, 1361, 1362, 1363, 1364, 1365, 1366, 1367, 1368, 1369, 1370, 1371, 1372, 1373, 1374, 1375, 1376, 1377, 1378, 1379, 1380, 1381, 1382, 1383, 1384, 1385, 1386, 1387, 1388, 1389, 1390, 1391, 1392, 1393, 1394, 1395, 1396, 1397, 1398, 1399, 1400, 1401, 1402, 1403, 1404, 1405, 1406, 1407, 1408, 1409, 1410, 1411, 1412, 1413, 1414, 1415, 1416, 1417, 1418, 1419, 1420, 1421, 1422, 1423, 1424, 1425, 1426, 1427, 1428, 1429, 1430, 1431, 1432, 1433, 1434, 1435, 1436, 1437, 1438, 1439, 1440, 1441, 1442, 1443, 1444, 1445, 1446, 1447, 1448, 1449, 1450, 1451, 1452, 1453, 1454, 1455, 1456, 1457, 1458, 1459, 1460, 1461, 1462, 1463, 1464, 1465, 1466, 1467, 1468, 1469, 1470, 1471, 1472, 1473, 1474, 1475, 1476, 1477, 1478, 1479, 1480, 1481, 1482, 1483, 1484, 1485, 1486, 1487, 1488, 1489, 1490, 1491, 1492, 1493, 1494, 1495, 1496, 1497, 1498, 1499, 1500, 1501, 1502, 1503, 1504, 1505, 1506, 1507, 1508, 1509, 1510, 1511, 1512, 1513, 1514, 1515, 1516, 1517, 1518, 1519, 1520, 1521, 1522, 1523, 1524, 1525, 1526, 1527, 1528, 1529, 1530, 1531, 1532, 1533, 1534, 1535, 1536, 1537, 1538, 1539, 1540, 1541, 1542, 1543, 1544, 1545, 1546, 1547, 1548, 1549, 1550, 1551, 1552, 1553, 1554, 1555, 1556, 1557, 1558, 1559, 1560, 1561, 1562, 1563, 1564, 1565, 1566, 1567, 1568, 1569, 1570, 1571, 1572, 1573, 1574, 1575, 1576, 1577, 1578, 1579, 1580, 1581, 1582, 1583, 1584, 1585, 1586, 1587, 1588, 1589, 1590, 1591, 1592, 1593, 1594, 1595, 1596, 1597, 1598, 1599, 1600, 1601, 1602, 1603, 1604, 1605, 1606, 1607, 1608, 1609, 1610, 1611, 1612, 1613, 1614, 1615, 1616, 1617, 1618, 1619, 1620, 1621, 1622, 1623, 1624, 1625, 1626, 1627, 1628, 1629, 1630, 1631, 1632, 1633, 1634, 1635, 1636, 1637, 1638],
      "AcquisitionTime": ["183543.250000", "183544.255000", "183545.257500", "183546.262500", "183547.265000", "183548.270000", "183549.275000", "183550.277500", "183551.282500", "183552.285000", "183553.290000", "183554.295000", "183555.297500", "183556.302500", "183557.307500", "183558.310000", "183559.315000", "183600.317500", "183601.322500", "183602.327500", "183603.330000", "183604.335000", "183605.337500", "183606.342500", "183607.347500", "183608.350000", "183609.355000", "183610.357500", "183611.362500", "183612.367500", "183613.370000", "183614.375000", "183615.377500", "183616.382500", "183617.387500", "183618.390000", "183619.395000", "183620.397500", "183621.402500", "183622.407500", "183623.410000", "183624.415000", "183625.417500", "183626.422500", "183627.427500", "183628.430000", "183629.435000", "183630.440000", "183631.442500", "183632.447500", "183633.450000", "183634.455000", "183635.460000", "183636.462500", "183637.467500", "183638.470000", "183639.475000", "183640.480000", "183641.482500", "183642.487500", "183643.490000", "183644.495000", "183645.500000", "183646.502500", "183647.507500", "183648.510000", "183649.515000", "183650.520000", "183651.522500", "183652.527500", "183653.530000", "183654.535000", "183655.540000", "183656.542500", "183657.547500", "183658.552500", "183659.555000", "183700.560000", "183701.562500", "183702.567500", "183703.572500", "183704.575000", "183705.580000", "183706.582500", "183707.587500", "183708.592500", "183709.595000", "183710.600000", "183711.602500", "183712.607500", "183713.612500", "183714.615000", "183715.620000", "183716.622500", "183717.627500", "183718.632500", "183719.635000", "183720.640000", "183721.642500", "183722.647500", "183723.652500", "183724.655000", "183725.660000", "183726.662500", "183727.667500", "183728.672500", "183729.675000", "183730.680000", "183731.685000", "183732.687500", "183733.692500", "183734.695000", "183735.700000", "183736.705000", "183737.707500", "183738.712500", "183739.715000", "183740.720000", "183741.725000", "183742.727500", "183743.732500", "183744.735000", "183745.740000", "183746.745000", "183747.747500", "183748.752500", "183749.755000", "183750.760000", "183751.765000", "183752.767500", "183753.772500", "183754.775000", "183755.780000", "183756.785000", "183757.787500", "183758.792500", "183759.797500", "183800.800000", "183801.805000", "183802.807500", "183803.812500", "183804.817500", "183805.820000", "183806.825000", "183807.827500", "183808.832500", "183809.837500", "183810.840000", "183811.845000", "183812.847500", "183813.852500", "183814.857500", "183815.860000", "183816.865000", "183817.867500", "183818.872500", "183819.877500", "183820.880000", "183821.885000", "183822.887500", "183823.892500", "183824.897500", "183825.900000", "183826.905000", "183827.907500", "183828.912500", "183829.917500", "183830.920000", "183831.925000", "183832.930000", "183833.932500", "183834.937500", "183835.940000", "183836.945000", "183837.950000", "183838.952500", "183839.957500", "183840.960000", "183841.965000", "183842.970000", "183843.972500", "183844.977500", "183845.980000", "183846.985000", "183847.990000", "183848.992500", "183849.997500", "183851.000000", "183852.005000", "183853.010000", "183854.012500", "183855.017500", "183856.020000", "183857.025000", "183858.030000", "183859.032500", "183900.037500", "183901.040000", "183902.045000", "183903.050000", "183904.052500", "183905.057500", "183906.062500", "183907.065000", "183908.070000", "183909.072500", "183910.077500", "183911.082500", "183912.085000", "183913.090000", "183914.092500", "183915.097500", "183916.102500", "183917.105000", "183918.110000", "183919.112500", "183920.117500", "183921.122500", "183922.125000", "183923.130000", "183924.132500", "183925.137500", "183926.142500", "183927.145000", "183928.150000", "183929.152500", "183930.157500", "183931.162500", "183932.165000", "183933.170000", "183934.175000", "183935.177500", "183936.182500", "183937.185000", "183938.190000", "183939.195000", "183940.197500", "183941.202500", "183942.205000", "183943.210000", "183944.215000", "183945.217500", "183946.222500", "183947.225000", "183948.230000", "183949.235000", "183950.237500", "183951.242500", "183952.245000", "183953.250000", "183954.255000", "183955.257500", "183956.262500", "183957.265000", "183958.270000", "183959.275000", "184000.277500", "184001.282500", "184002.285000", "184003.290000", "184004.295000", "184005.297500", "184006.302500", "184007.307500", "184008.310000", "184009.315000", "184010.317500", "184011.322500", "184012.327500", "184013.330000", "184014.335000", "184015.337500", "184016.342500", "184017.347500", "184018.350000", "184019.355000", "184020.357500", "184021.362500", "184022.367500", "184023.370000", "184024.375000", "184025.377500", "184026.382500", "184027.387500", "184028.390000", "184029.395000", "184030.397500", "184031.402500", "184032.407500", "184033.410000", "184034.415000", "184035.417500", "184036.422500", "184037.427500", "184038.430000", "184039.435000", "184040.440000", "184041.442500", "184042.447500", "184043.450000", "184044.455000", "184045.460000", "184046.462500", "184047.467500", "184048.470000", "184049.475000", "184050.480000", "184051.482500", "184052.487500", "184053.490000", "184054.495000", "184055.500000", "184056.502500", "184057.507500", "184058.510000", "184059.515000", "184100.520000", "184101.522500", "184102.527500", "184103.530000", "184104.535000", "184105.540000", "184106.542500", "184107.547500", "184108.552500", "184109.555000", "184110.560000", "184111.562500", "184112.567500", "184113.572500", "184114.575000", "184115.580000", "184116.582500", "184117.587500", "184118.592500", "184119.595000", "184120.600000", "184121.602500", "184122.607500", "184123.612500", "184124.615000", "184125.620000", "184126.622500", "184127.627500", "184128.632500", "184129.635000", "184130.640000", "184131.642500", "184132.647500", "184133.652500", "184134.655000", "184135.660000", "184136.662500", "184137.667500", "184138.672500", "184139.675000", "184140.680000", "184141.685000", "184142.687500", "184143.692500", "184144.695000", "184145.700000", "184146.705000", "184147.707500", "184148.712500", "184149.715000", "184150.720000", "184151.725000", "184152.727500", "184153.732500", "184154.735000", "184155.740000", "184156.745000", "184157.747500", "184158.752500", "184159.755000", "184200.760000", "184201.765000", "184202.767500", "184203.772500", "184204.775000", "184205.780000", "184206.785000", "184207.787500", "184208.792500", "184209.797500", "184210.800000", "184211.805000", "184212.807500", "184213.812500", "184214.817500", "184215.820000", "184216.825000", "184217.827500", "184218.832500", "184219.837500", "184220.840000", "184221.845000", "184222.847500", "184223.852500", "184224.857500", "184225.860000", "184226.865000", "184227.867500", "184228.872500", "184229.877500", "184230.880000", "184231.885000", "184232.887500", "184233.892500", "184234.897500", "184235.900000", "184236.905000", "184237.907500", "184238.912500", "184239.917500", "184240.920000", "184241.925000", "184242.930000", "184243.932500", "184244.937500", "184245.940000", "184246.945000", "184247.950000", "184248.952500", "184249.957500", "184250.960000", "184251.965000", "184252.970000", "184253.972500", "184254.977500", "184255.980000", "184256.985000", "184257.990000", "184258.992500", "184259.997500", "184301.000000", "184302.005000", "184303.010000", "184304.012500", "184305.017500", "184306.020000", "184307.025000", "184308.030000", "184309.032500", "184310.037500", "184311.040000", "184312.045000", "184313.050000", "184314.052500", "184315.057500", "184316.062500", "184317.065000", "184318.070000", "184319.072500", "184320.077500", "184321.082500", "184322.085000", "184323.090000", "184324.092500", "184325.097500", "184326.102500", "184327.105000", "184328.110000", "184329.112500", "184330.117500", "184331.122500", "184332.125000", "184333.130000", "184334.132500", "184335.137500", "184336.142500", "184337.145000", "184338.150000", "184339.152500", "184340.157500", "184341.162500", "184342.165000", "184343.170000", "184344.175000", "184345.177500", "184346.182500", "184347.185000", "184348.190000", "184349.195000", "184350.197500", "184351.202500", "184352.205000", "184353.210000", "184354.215000", "184355.217500", "184356.222500", "184357.225000", "184358.230000", "184359.235000", "184400.237500", "184401.242500", "184402.245000", "184403.250000", "184404.255000", "184405.257500", "184406.262500", "184407.265000", "184408.270000", "184409.275000", "184410.277500", "184411.282500", "184412.285000", "184413.290000", "184414.295000", "184415.297500", "184416.302500", "184417.307500", "184418.310000", "184419.315000", "184420.317500", "184421.322500", "184422.327500", "184423.330000", "184424.335000", "184425.337500", "184426.342500", "184427.347500", "184428.350000", "184429.355000", "184430.357500", "184431.362500", "184432.367500", "184433.370000", "184434.375000", "184435.377500", "184436.382500", "184437.387500", "184438.390000", "184439.395000", "184440.397500", "184441.402500", "184442.407500", "184443.410000", "184444.415000", "184445.417500", "184446.422500", "184447.427500", "184448.430000", "184449.435000", "184450.440000", "184451.442500", "184452.447500", "184453.450000", "184454.455000", "184455.460000", "184456.462500", "184457.467500", "184458.470000", "184459.475000", "184500.480000", "184501.482500", "184502.487500", "184503.490000", "184504.495000", "184505.500000", "184506.502500", "184507.507500", "184508.510000", "184509.515000", "184510.520000", "184511.522500", "184512.527500", "184513.530000", "184514.535000", "184515.540000", "184516.542500", "184517.547500", "184518.552500", "184519.555000", "184520.560000", "184521.562500", "184522.567500", "184523.572500", "184524.575000", "184525.580000", "184526.582500", "184527.587500", "184528.592500", "184529.595000", "184530.600000", "184531.602500", "184532.607500", "184533.612500", "184534.615000", "184535.620000", "184536.622500", "184537.627500", "184538.632500", "184539.635000", "184540.640000", "184541.642500", "184542.647500", "184543.652500", "184544.655000", "184545.660000", "184546.662500", "184547.667500", "184548.672500", "184549.675000", "184550.680000", "184551.685000", "184552.687500", "184553.692500", "184554.695000", "184555.700000", "184556.705000", "184557.707500", "184558.712500", "184559.715000", "184600.720000", "184601.725000", "184602.727500", "184603.732500", "184604.735000", "184605.740000", "184606.745000", "184607.747500", "184608.752500", "184609.755000", "184610.760000", "184611.765000", "184612.767500", "184613.772500", "184614.775000", "184615.780000", "184616.785000", "184617.787500", "184618.792500", "184619.797500", "184620.800000", "184621.805000", "184622.807500", "184623.812500", "184624.817500", "184625.820000", "184626.825000", "184627.827500", "184628.832500", "184629.837500", "184630.840000", "184631.845000", "184632.847500", "184633.852500", "184634.857500", "184635.860000", "184636.865000", "184637.867500", "184638.872500", "184639.877500", "184640.880000", "184641.885000", "184642.887500", "184643.892500", "184644.897500", "184645.900000", "184646.905000", "184647.907500", "184648.912500", "184649.917500", "184650.920000", "184651.925000", "184652.930000", "184653.932500", "184654.937500", "184655.940000", "184656.945000", "184657.950000", "184658.952500", "184659.957500", "184700.960000", "184701.965000", "184702.970000", "184703.972500", "184704.977500", "184705.980000", "184706.985000", "184707.990000", "184708.992500", "184709.997500", "184711.000000", "184712.005000", "184713.010000", "184714.012500", "184715.017500", "184716.020000", "184717.025000", "184718.030000", "184719.032500", "184720.037500", "184721.040000", "184722.045000", "184723.050000", "184724.052500", "184725.057500", "184726.062500", "184727.065000", "184728.070000", "184729.072500", "184730.077500", "184731.082500", "184732.085000", "184733.090000", "184734.092500", "184735.097500", "184736.102500", "184737.105000", "184738.110000", "184739.112500", "184740.117500", "184741.122500", "184742.125000", "184743.130000", "184744.132500", "184745.137500", "184746.142500", "184747.145000", "184748.150000", "184749.152500", "184750.157500", "184751.162500", "184752.165000", "184753.170000", "184754.175000", "184755.177500", "184756.182500", "184757.185000", "184758.190000", "184759.195000", "184800.197500", "184801.202500", "184802.205000", "184803.210000", "184804.215000", "184805.217500", "184806.222500", "184807.225000", "184808.230000", "184809.235000", "184810.237500", "184811.242500", "184812.245000", "184813.250000", "184814.255000", "184815.257500", "184816.262500", "184817.265000", "184818.270000", "184819.275000", "184820.277500", "184821.282500", "184822.285000", "184823.290000", "184824.295000", "184825.297500", "184826.302500", "184827.307500", "184828.310000", "184829.315000", "184830.317500", "184831.322500", "184832.327500", "184833.330000", "184834.335000", "184835.337500", "184836.342500", "184837.347500", "184838.350000", "184839.355000", "184840.357500", "184841.362500", "184842.367500", "184843.370000", "184844.375000", "184845.377500", "184846.382500", "184847.387500", "184848.390000", "184849.395000", "184850.397500", "184851.402500", "184852.407500", "184853.410000", "184854.415000", "184855.417500", "184856.422500", "184857.427500", "184858.430000", "184859.435000", "184900.440000", "184901.442500", "184902.447500", "184903.450000", "184904.455000", "184905.460000", "184906.462500", "184907.467500", "184908.470000", "184909.475000", "184910.480000", "184911.482500", "184912.487500", "184913.490000", "184914.495000", "184915.500000", "184916.502500", "184917.507500", "184918.510000", "184919.515000", "184920.520000", "184921.522500", "184922.527500", "184923.530000", "184924.535000", "184925.540000", "184926.542500", "184927.547500", "184928.552500", "184929.555000", "184930.560000", "184931.562500", "184932.567500", "184933.572500", "184934.575000", "184935.580000", "184936.582500", "184937.587500", "184938.592500", "184939.595000", "184940.600000", "184941.602500", "184942.607500", "184943.612500", "184944.615000", "184945.620000", "184946.622500", "184947.627500", "184948.632500", "184949.635000", "184950.640000", "184951.642500", "184952.647500", "184953.652500", "184954.655000", "184955.660000", "184956.662500", "184957.667500", "184958.672500", "184959.675000", "185000.680000", "185001.685000", "185002.687500", "185003.692500", "185004.695000", "185005.700000", "185006.705000", "185007.707500", "185008.712500", "185009.715000", "185010.720000", "185011.725000", "185012.727500", "185013.732500", "185014.735000", "185015.740000", "185016.745000", "185017.747500", "185018.752500", "185019.755000", "185020.760000", "185021.765000", "185022.767500", "185023.772500", "185024.775000", "185025.780000", "185026.785000", "185027.787500", "185028.792500", "185029.797500", "185030.800000", "185031.805000", "185032.807500", "185033.812500", "185034.817500", "185035.820000", "185036.825000", "185037.827500", "185038.832500", "185039.837500", "185040.840000", "185041.845000", "185042.847500", "185043.852500", "185044.857500", "185045.860000", "185046.865000", "185047.867500", "185048.872500", "185049.877500", "185050.880000", "185051.885000", "185052.887500", "185053.892500", "185054.897500", "185055.900000", "185056.905000", "185057.907500", "185058.912500", "185059.917500", "185100.920000", "185101.925000", "185102.930000", "185103.932500", "185104.937500", "185105.940000", "185106.945000", "185107.950000", "185108.952500", "185109.957500", "185110.960000", "185111.965000", "185112.970000", "185113.972500", "185114.977500", "185115.980000", "185116.985000", "185117.990000", "185118.992500", "185119.997500", "185121.000000", "185122.005000", "185123.010000", "185124.012500", "185125.017500", "185126.020000", "185127.025000", "185128.030000", "185129.032500", "185130.037500", "185131.040000", "185132.045000", "185133.050000", "185134.052500", "185135.057500", "185136.062500", "185137.065000", "185138.070000", "185139.072500", "185140.077500", "185141.082500", "185142.085000", "185143.090000", "18514