{
  "AcquisitionMatrixPE": 64,
  "AcquisitionNumber": 1,
  "AcquisitionTime": "17:38:13.375000",
  "BandwidthPerPixelPhaseEncode": 19.531,
  "BaseResolution": 64,
  "CoilString": "C:HEA;HEP",
  "ConversionSoftware": "dcm2niix",
  "ConversionSoftwareVersion": "v1.0.20190902",
  "DerivedVendorReportedEchoSpacing": 0.00080001,
  "DeviceSerialNumber": "26099",
  "DwellTime": 5.3e-06,
  "EchoTime": 0.0548,
  "EffectiveEchoSpacing": 0.00080001,
  "FlipAngle": 75,
  "ImageComments": "Unaliased_MB4_PE3_LB_SENSE1",
  "ImageOrientationPatientDICOM": [1, -2e-16, 0, 2e-16, 0.948324, -0.317305],
  "ImageType": [
    "ORIGINAL",
    "PRIMARY",
    "M",
    "MB",
    "ND",
    "MOSAIC"
],
  "ImagingFrequency": 63.6393,
  "InPlanePhaseEncodingDirectionDICOM": "COL",
  "InstitutionAddress": "Bedford_Way_26_London_London_GB_WC1H_0AP",
  "InstitutionName": "University_College",
  "InstitutionalDepartmentName": "Department",
  "MRAcquisitionType": "2D",
  "MagneticFieldStrength": 1.5,
  "Manufacturer": "Siemens",
  "ManufacturersModelName": "Avanto",
  "Modality": "MR",
  "MultibandAccelerationFactor": 4,
  "PartialFourier": 1,
  "PatientPosition": "HFS",
  "PercentPhaseFOV": 100,
  "PhaseEncodingDirection": "j-",
  "PhaseEncodingSteps": 64,
  "PhaseResolution": 1,
  "PixelBandwidth": 1474,
  "ProcedureStepDescription": "ucl_bbk_Jeremy",
  "ProtocolName": "EcL4-3.2m-40-1474-1s-55e",
  "PulseSequenceDetails": "%CustomerSeq%_cmrr_mbep2d_bold",
  "ReceiveCoilName": "32Ch_Head",
  "ReconMatrixPE": 64,
  "RepetitionTime": 1,
  "SAR": 0.0507349,
  "ScanOptions": "FS",
  "ScanningSequence": "EP",
  "SequenceName": "epfid2d1_64",
  "SequenceVariant": "SK_SS",
  "SeriesDescription": "EcL4-3.2m-40-1474-1s-55e",
  "SeriesNumber": 3,
  "ShimSetting": [172, -82, 343, 732, -111, -88, -619, 131],
  "SliceThickness": 3.2,
  "SliceTiming": [0, 0.7025, 0.4025, 0.1, 0.8025, 0.5025, 0.2, 0.9025, 0.6025, 0.3025, 0, 0.7025, 0.4025, 0.1, 0.8025, 0.5025, 0.2, 0.9025, 0.6025, 0.3025, 0, 0.7025, 0.4025, 0.1, 0.8025, 0.5025, 0.2, 0.9025, 0.6025, 0.3025, 0, 0.7025, 0.4025, 0.1, 0.8025, 0.5025, 0.2, 0.9025, 0.6025, 0.3025],
  "SoftwareVersions": "syngo_MR_B17",
  "SpacingBetweenSlices": 3.2,
  "StationName": "MRC26099",
  "TaskName": "backtothefuture",
  "CogAtlasID": "http://www.cognitiveatlas.org/task/id/tsk_jbg1oF4D9OTkO/",
  "TotalReadoutTime": 0.0504006,
  "TxRefAmp": 215.536,
  "dcmmeta_affine": [
    [-3.203125, 6.40624994052057e-16, -2.0307499766880583e-16, 102.5],
    [6.40624994052057e-16, 3.0375990867614746, -1.015375018119812, -70.73380279541016],
    [0.0, 1.0163664817810059, 3.0346357822418213, -54.65370559692383],
    [0.0, 0.0, 0.0, 1.0]
],
  "dcmmeta_reorient_transform": [
    [0.0, -1.0, 0.0, 63.0],
    [1.0, 0.0, 0.0, 0.0],
    [0.0, 0.0, 1.0, 0.0],
    [0.0, 0.0, 0.0, 1.0]
],
  "dcmmeta_shape": [64, 64, 40, 1467],
  "dcmmeta_slice_dim": 2,
  "dcmmeta_version": 0.6,
  "global": {
    "const": {
      "AcquisitionMatrix": [64, 0, 0, 64],
      "AngioFlag": "N",
      "BitsAllocated": 16,
      "BitsStored": 12,
      "Columns": 448,
      "EchoNumbers": 1,
      "EchoTime": 54.8,
      "EchoTrainLength": 1,
      "FlipAngle": 75.0,
      "HighBit": 11,
      "ImageOrientationPatient": [1.0, -2e-16, 0.0, 2e-16, 0.9483236491687, -0.3173046744493],
      "ImagePositionPatient": [-717.5, -703.8539905106, 204.51976259351],
      "ImageType": [
        "ORIGINAL",
        "PRIMARY",
        "M",
        "MB",
        "ND",
        "MOSAIC"
],
      "ImagedNucleus": "1H",
      "ImagingFrequency": 63.639348,
      "InPlanePhaseEncodingDirection": "COL",
      "MRAcquisitionType": "2D",
      "MagneticFieldStrength": 1.5,
      "Manufacturer": "SIEMENS",
      "ManufacturerModelName": "Avanto",
      "Modality": "MR",
      "NumberOfAverages": 1.0,
      "NumberOfPhaseEncodingSteps": 64,
      "PercentPhaseFieldOfView": 100.0,
      "PercentSampling": 100.0,
      "PerformedProcedureStepStartTime": "173327.656000",
      "PhotometricInterpretation": "MONOCHROME2",
      "PixelBandwidth": 1474.0,
      "PixelRepresentation": 0,
      "PixelSpacing": [3.203125, 3.203125],
      "ProtocolName": "EcL4-3.2m-40-1474-1s-55e",
      "RepetitionTime": 1000.0,
      "Rows": 448,
      "SAR": 0.05073489536745,
      "SamplesPerPixel": 1,
      "ScanOptions": "FS",
      "ScanningSequence": "EP",
      "SequenceName": "epfid2d1_64",
      "SequenceVariant": [
        "SK",
        "SS"
],
      "SeriesDescription": "EcL4-3.2m-40-1474-1s-55e",
      "SeriesNumber": 3,
      "SeriesTime": "173854.031000",
      "SliceLocation": -29.385233729002,
      "SliceThickness": 3.2000000476837,
      "SmallestImagePixelValue": 0,
      "SoftwareVersions": "syngo MR B17",
      "SpacingBetweenSlices": 3.2000000381348,
      "SpecificCharacterSet": "ISO_IR 100",
      "StudyID": "1",
      "StudyTime": "173327.609000",
      "TransmitCoilName": "Body",
      "VariableFlipAngleFlag": "N",
      "WindowCenterWidthExplanation": "Algo1",
      "dBdt": 0.0},
    "slices": {}
  },
  "time": {
    "samples": {
      "AcquisitionNumber": [1, 2, 3, 4, 5, 6, 7, 8, 9, 10, 11, 12, 13, 14, 15, 16, 17, 18, 19, 20, 21, 22, 23, 24, 25, 26, 27, 28, 29, 30, 31, 32, 33, 34, 35, 36, 37, 38, 39, 40, 41, 42, 43, 44, 45, 46, 47, 48, 49, 50, 51, 52, 53, 54, 55, 56, 57, 58, 59, 60, 61, 62, 63, 64, 65, 66, 67, 68, 69, 70, 71, 72, 73, 74, 75, 76, 77, 78, 79, 80, 81, 82, 83, 84, 85, 86, 87, 88, 89, 90, 91, 92, 93, 94, 95, 96, 97, 98, 99, 100, 101, 102, 103, 104, 105, 106, 107, 108, 109, 110, 111, 112, 113, 114, 115, 116, 117, 118, 119, 120, 121, 122, 123, 124, 125, 126, 127, 128, 129, 130, 131, 132, 133, 134, 135, 136, 137, 138, 139, 140, 141, 142, 143, 144, 145, 146, 147, 148, 149, 150, 151, 152, 153, 154, 155, 156, 157, 158, 159, 160, 161, 162, 163, 164, 165, 166, 167, 168, 169, 170, 171, 172, 173, 174, 175, 176, 177, 178, 179, 180, 181, 182, 183, 184, 185, 186, 187, 188, 189, 190, 191, 192, 193, 194, 195, 196, 197, 198, 199, 200, 201, 202, 203, 204, 205, 206, 207, 208, 209, 210, 211, 212, 213, 214, 215, 216, 217, 218, 219, 220, 221, 222, 223, 224, 225, 226, 227, 228, 229, 230, 231, 232, 233, 234, 235, 236, 237, 238, 239, 240, 241, 242, 243, 244, 245, 246, 247, 248, 249, 250, 251, 252, 253, 254, 255, 256, 257, 258, 259, 260, 261, 262, 263, 264, 265, 266, 267, 268, 269, 270, 271, 272, 273, 274, 275, 276, 277, 278, 279, 280, 281, 282, 283, 284, 285, 286, 287, 288, 289, 290, 291, 292, 293, 294, 295, 296, 297, 298, 299, 300, 301, 302, 303, 304, 305, 306, 307, 308, 309, 310, 311, 312, 313, 314, 315, 316, 317, 318, 319, 320, 321, 322, 323, 324, 325, 326, 327, 328, 329, 330, 331, 332, 333, 334, 335, 336, 337, 338, 339, 340, 341, 342, 343, 344, 345, 346, 347, 348, 349, 350, 351, 352, 353, 354, 355, 356, 357, 358, 359, 360, 361, 362, 363, 364, 365, 366, 367, 368, 369, 370, 371, 372, 373, 374, 375, 376, 377, 378, 379, 380, 381, 382, 383, 384, 385, 386, 387, 388, 389, 390, 391, 392, 393, 394, 395, 396, 397, 398, 399, 400, 401, 402, 403, 404, 405, 406, 407, 408, 409, 410, 411, 412, 413, 414, 415, 416, 417, 418, 419, 420, 421, 422, 423, 424, 425, 426, 427, 428, 429, 430, 431, 432, 433, 434, 435, 436, 437, 438, 439, 440, 441, 442, 443, 444, 445, 446, 447, 448, 449, 450, 451, 452, 453, 454, 455, 456, 457, 458, 459, 460, 461, 462, 463, 464, 465, 466, 467, 468, 469, 470, 471, 472, 473, 474, 475, 476, 477, 478, 479, 480, 481, 482, 483, 484, 485, 486, 487, 488, 489, 490, 491, 492, 493, 494, 495, 496, 497, 498, 499, 500, 501, 502, 503, 504, 505, 506, 507, 508, 509, 510, 511, 512, 513, 514, 515, 516, 517, 518, 519, 520, 521, 522, 523, 524, 525, 526, 527, 528, 529, 530, 531, 532, 533, 534, 535, 536, 537, 538, 539, 540, 541, 542, 543, 544, 545, 546, 547, 548, 549, 550, 551, 552, 553, 554, 555, 556, 557, 558, 559, 560, 561, 562, 563, 564, 565, 566, 567, 568, 569, 570, 571, 572, 573, 574, 575, 576, 577, 578, 579, 580, 581, 582, 583, 584, 585, 586, 587, 588, 589, 590, 591, 592, 593, 594, 595, 596, 597, 598, 599, 600, 601, 602, 603, 604, 605, 606, 607, 608, 609, 610, 611, 612, 613, 614, 615, 616, 617, 618, 619, 620, 621, 622, 623, 624, 625, 626, 627, 628, 629, 630, 631, 632, 633, 634, 635, 636, 637, 638, 639, 640, 641, 642, 643, 644, 645, 646, 647, 648, 649, 650, 651, 652, 653, 654, 655, 656, 657, 658, 659, 660, 661, 662, 663, 664, 665, 666, 667, 668, 669, 670, 671, 672, 673, 674, 675, 676, 677, 678, 679, 680, 681, 682, 683, 684, 685, 686, 687, 688, 689, 690, 691, 692, 693, 694, 695, 696, 697, 698, 699, 700, 701, 702, 703, 704, 705, 706, 707, 708, 709, 710, 711, 712, 713, 714, 715, 716, 717, 718, 719, 720, 721, 722, 723, 724, 725, 726, 727, 728, 729, 730, 731, 732, 733, 734, 735, 736, 737, 738, 739, 740, 741, 742, 743, 744, 745, 746, 747, 748, 749, 750, 751, 752, 753, 754, 755, 756, 757, 758, 759, 760, 761, 762, 763, 764, 765, 766, 767, 768, 769, 770, 771, 772, 773, 774, 775, 776, 777, 778, 779, 780, 781, 782, 783, 784, 785, 786, 787, 788, 789, 790, 791, 792, 793, 794, 795, 796, 797, 798, 799, 800, 801, 802, 803, 804, 805, 806, 807, 808, 809, 810, 811, 812, 813, 814, 815, 816, 817, 818, 819, 820, 821, 822, 823, 824, 825, 826, 827, 828, 829, 830, 831, 832, 833, 834, 835, 836, 837, 838, 839, 840, 841, 842, 843, 844, 845, 846, 847, 848, 849, 850, 851, 852, 853, 854, 855, 856, 857, 858, 859, 860, 861, 862, 863, 864, 865, 866, 867, 868, 869, 870, 871, 872, 873, 874, 875, 876, 877, 878, 879, 880, 881, 882, 883, 884, 885, 886, 887, 888, 889, 890, 891, 892, 893, 894, 895, 896, 897, 898, 899, 900, 901, 902, 903, 904, 905, 906, 907, 908, 909, 910, 911, 912, 913, 914, 915, 916, 917, 918, 919, 920, 921, 922, 923, 924, 925, 926, 927, 928, 929, 930, 931, 932, 933, 934, 935, 936, 937, 938, 939, 940, 941, 942, 943, 944, 945, 946, 947, 948, 949, 950, 951, 952, 953, 954, 955, 956, 957, 958, 959, 960, 961, 962, 963, 964, 965, 966, 967, 968, 969, 970, 971, 972, 973, 974, 975, 976, 977, 978, 979, 980, 981, 982, 983, 984, 985, 986, 987, 988, 989, 990, 991, 992, 993, 994, 995, 996, 997, 998, 999, 1000, 1001, 1002, 1003, 1004, 1005, 1006, 1007, 1008, 1009, 1010, 1011, 1012, 1013, 1014, 1015, 1016, 1017, 1018, 1019, 1020, 1021, 1022, 1023, 1024, 1025, 1026, 1027, 1028, 1029, 1030, 1031, 1032, 1033, 1034, 1035, 1036, 1037, 1038, 1039, 1040, 1041, 1042, 1043, 1044, 1045, 1046, 1047, 1048, 1049, 1050, 1051, 1052, 1053, 1054, 1055, 1056, 1057, 1058, 1059, 1060, 1061, 1062, 1063, 1064, 1065, 1066, 1067, 1068, 1069, 1070, 1071, 1072, 1073, 1074, 1075, 1076, 1077, 1078, 1079, 1080, 1081, 1082, 1083, 1084, 1085, 1086, 1087, 1088, 1089, 1090, 1091, 1092, 1093, 1094, 1095, 1096, 1097, 1098, 1099, 1100, 1101, 1102, 1103, 1104, 1105, 1106, 1107, 1108, 1109, 1110, 1111, 1112, 1113, 1114, 1115, 1116, 1117, 1118, 1119, 1120, 1121, 1122, 1123, 1124, 1125, 1126, 1127, 1128, 1129, 1130, 1131, 1132, 1133, 1134, 1135, 1136, 1137, 1138, 1139, 1140, 1141, 1142, 1143, 1144, 1145, 1146, 1147, 1148, 1149, 1150, 1151, 1152, 1153, 1154, 1155, 1156, 1157, 1158, 1159, 1160, 1161, 1162, 1163, 1164, 1165, 1166, 1167, 1168, 1169, 1170, 1171, 1172, 1173, 1174, 1175, 1176, 1177, 1178, 1179, 1180, 1181, 1182, 1183, 1184, 1185, 1186, 1187, 1188, 1189, 1190, 1191, 1192, 1193, 1194, 1195, 1196, 1197, 1198, 1199, 1200, 1201, 1202, 1203, 1204, 1205, 1206, 1207, 1208, 1209, 1210, 1211, 1212, 1213, 1214, 1215, 1216, 1217, 1218, 1219, 1220, 1221, 1222, 1223, 1224, 1225, 1226, 1227, 1228, 1229, 1230, 1231, 1232, 1233, 1234, 1235, 1236, 1237, 1238, 1239, 1240, 1241, 1242, 1243, 1244, 1245, 1246, 1247, 1248, 1249, 1250, 1251, 1252, 1253, 1254, 1255, 1256, 1257, 1258, 1259, 1260, 1261, 1262, 1263, 1264, 1265, 1266, 1267, 1268, 1269, 1270, 1271, 1272, 1273, 1274, 1275, 1276, 1277, 1278, 1279, 1280, 1281, 1282, 1283, 1284, 1285, 1286, 1287, 1288, 1289, 1290, 1291, 1292, 1293, 1294, 1295, 1296, 1297, 1298, 1299, 1300, 1301, 1302, 1303, 1304, 1305, 1306, 1307, 1308, 1309, 1310, 1311, 1312, 1313, 1314, 1315, 1316, 1317, 1318, 1319, 1320, 1321, 1322, 1323, 1324, 1325, 1326, 1327, 1328, 1329, 1330, 1331, 1332, 1333, 1334, 1335, 1336, 1337, 1338, 1339, 1340, 1341, 1342, 1343, 1344, 1345, 1346, 1347, 1348, 1349, 1350, 1351, 1352, 1353, 1354, 1355, 1356, 1357, 1358, 1359, 1360, 1361, 1362, 1363, 1364, 1365, 1366, 1367, 1368, 1369, 1370, 1371, 1372, 1373, 1374, 1375, 1376, 1377, 1378, 1379, 1380, 1381, 1382, 1383, 1384, 1385, 1386, 1387, 1388, 1389, 1390, 1391, 1392, 1393, 1394, 1395, 1396, 1397, 1398, 1399, 1400, 1401, 1402, 1403, 1404, 1405, 1406, 1407, 1408, 1409, 1410, 1411, 1412, 1413, 1414, 1415, 1416, 1417, 1418, 1419, 1420, 1421, 1422, 1423, 1424, 1425, 1426, 1427, 1428, 1429, 1430, 1431, 1432, 1433, 1434, 1435, 1436, 1437, 1438, 1439, 1440, 1441, 1442, 1443, 1444, 1445, 1446, 1447, 1448, 1449, 1450, 1451, 1452, 1453, 1454, 1455, 1456, 1457, 1458, 1459, 1460, 1461, 1462, 1463, 1464, 1465, 1466, 1467],
      "AcquisitionTime": ["173813.375000", "173814.380000", "173815.382500", "173816.387500", "173817.392500", "173818.395000", "173819.400000", "173820.402500", "173821.407500", "173822.412500", "173823.415000", "173824.420000", "173825.422500", "173826.427500", "173827.432500", "173828.435000", "173829.440000", "173830.442500", "173831.447500", "173832.452500", "173833.455000", "173834.460000", "173835.462500", "173836.467500", "173837.472500", "173838.475000", "173839.480000", "173840.482500", "173841.487500", "173842.492500", "173843.495000", "173844.500000", "173845.505000", "173846.507500", "173847.512500", "173848.515000", "173849.520000", "173850.525000", "173851.527500", "173852.532500", "173853.535000", "173854.540000", "173855.545000", "173856.547500", "173857.552500", "173858.555000", "173859.560000", "173900.565000", "173901.567500", "173902.572500", "173903.575000", "173904.580000", "173905.585000", "173906.587500", "173907.592500", "173908.595000", "173909.600000", "173910.605000", "173911.607500", "173912.612500", "173913.617500", "173914.620000", "173915.625000", "173916.627500", "173917.632500", "173918.637500", "173919.640000", "173920.645000", "173921.647500", "173922.652500", "173923.657500", "173924.660000", "173925.665000", "173926.667500", "173927.672500", "173928.677500", "173929.680000", "173930.685000", "173931.687500", "173932.692500", "173933.697500", "173934.700000", "173935.705000", "173936.707500", "173937.712500", "173938.717500", "173939.720000", "173940.725000", "173941.727500", "173942.732500", "173943.737500", "173944.740000", "173945.745000", "173946.750000", "173947.752500", "173948.757500", "173949.760000", "173950.765000", "173951.770000", "173952.772500", "173953.777500", "173954.780000", "173955.785000", "173956.790000", "173957.792500", "173958.797500", "173959.800000", "174000.805000", "174001.810000", "174002.812500", "174003.817500", "174004.820000", "174005.825000", "174006.830000", "174007.832500", "174008.837500", "174009.840000", "174010.845000", "174011.850000", "174012.852500", "174013.857500", "174014.860000", "174015.865000", "174016.870000", "174017.872500", "174018.877500", "174019.882500", "174020.885000", "174021.890000", "174022.892500", "174023.897500", "174024.902500", "174025.905000", "174026.910000", "174027.912500", "174028.917500", "174029.922500", "174030.925000", "174031.930000", "174032.932500", "174033.937500", "174034.942500", "174035.945000", "174036.950000", "174037.952500", "174038.957500", "174039.962500", "174040.965000", "174041.970000", "174042.972500", "174043.977500", "174044.982500", "174045.985000", "174046.990000", "174047.995000", "174048.997500", "174050.002500", "174051.005000", "174052.010000", "174053.015000", "174054.017500", "174055.022500", "174056.025000", "174057.030000", "174058.035000", "174059.037500", "174100.042500", "174101.045000", "174102.050000", "174103.055000", "174104.057500", "174105.062500", "174106.065000", "174107.070000", "174108.075000", "174109.077500", "174110.082500", "174111.085000", "174112.090000", "174113.095000", "174114.097500", "174115.102500", "174116.105000", "174117.110000", "174118.115000", "174119.117500", "174120.122500", "174121.127500", "174122.130000", "174123.135000", "174124.137500", "174125.142500", "174126.147500", "174127.150000", "174128.155000", "174129.157500", "174130.162500", "174131.167500", "174132.170000", "174133.175000", "174134.177500", "174135.182500", "174136.187500", "174137.190000", "174138.195000", "174139.197500", "174140.202500", "174141.207500", "174142.210000", "174143.215000", "174144.217500", "174145.222500", "174146.227500", "174147.230000", "174148.235000", "174149.240000", "174150.242500", "174151.247500", "174152.250000", "174153.255000", "174154.260000", "174155.262500", "174156.267500", "174157.270000", "174158.275000", "174159.280000", "174200.282500", "174201.287500", "174202.290000", "174203.295000", "174204.300000", "174205.302500", "174206.307500", "174207.310000", "174208.315000", "174209.320000", "174210.322500", "174211.327500", "174212.330000", "174213.335000", "174214.340000", "174215.342500", "174216.347500", "174217.350000", "174218.355000", "174219.360000", "174220.362500", "174221.367500", "174222.372500", "174223.375000", "174224.380000", "174225.382500", "174226.387500", "174227.392500", "174228.395000", "174229.400000", "174230.402500", "174231.407500", "174232.412500", "174233.415000", "174234.420000", "174235.422500", "174236.427500", "174237.432500", "174238.435000", "174239.440000", "174240.442500", "174241.447500", "174242.452500", "174243.455000", "174244.460000", "174245.462500", "174246.467500", "174247.472500", "174248.475000", "174249.480000", "174250.482500", "174251.487500", "174252.492500", "174253.495000", "174254.500000", "174255.505000", "174256.507500", "174257.512500", "174258.515000", "174259.520000", "174300.525000", "174301.527500", "174302.532500", "174303.535000", "174304.540000", "174305.545000", "174306.547500", "174307.552500", "174308.555000", "174309.560000", "174310.565000", "174311.567500", "174312.572500", "174313.575000", "174314.580000", "174315.585000", "174316.587500", "174317.592500", "174318.595000", "174319.600000", "174320.605000", "174321.607500", "174322.612500", "174323.617500", "174324.620000", "174325.625000", "174326.627500", "174327.632500", "174328.637500", "174329.640000", "174330.645000", "174331.647500", "174332.652500", "174333.657500", "174334.660000", "174335.665000", "174336.667500", "174337.672500", "174338.677500", "174339.680000", "174340.685000", "174341.687500", "174342.692500", "174343.697500", "174344.700000", "174345.705000", "174346.707500", "174347.712500", "174348.717500", "174349.720000", "174350.725000", "174351.727500", "174352.732500", "174353.737500", "174354.740000", "174355.745000", "174356.750000", "174357.752500", "174358.757500", "174359.760000", "174400.765000", "174401.770000", "174402.772500", "174403.777500", "174404.780000", "174405.785000", "174406.790000", "174407.792500", "174408.797500", "174409.800000", "174410.805000", "174411.810000", "174412.812500", "174413.817500", "174414.820000", "174415.825000", "174416.830000", "174417.832500", "174418.837500", "174419.840000", "174420.845000", "174421.850000", "174422.852500", "174423.857500", "174424.860000", "174425.865000", "174426.870000", "174427.872500", "174428.877500", "174429.882500", "174430.885000", "174431.890000", "174432.892500", "174433.897500", "174434.902500", "174435.905000", "174436.910000", "174437.912500", "174438.917500", "174439.922500", "174440.925000", "174441.930000", "174442.932500", "174443.937500", "174444.942500", "174445.945000", "174446.950000", "174447.952500", "174448.957500", "174449.962500", "174450.965000", "174451.970000", "174452.972500", "174453.977500", "174454.982500", "174455.985000", "174456.990000", "174457.995000", "174458.997500", "174500.002500", "174501.005000", "174502.010000", "174503.015000", "174504.017500", "174505.022500", "174506.025000", "174507.030000", "174508.035000", "174509.037500", "174510.042500", "174511.045000", "174512.050000", "174513.055000", "174514.057500", "174515.062500", "174516.065000", "174517.070000", "174518.075000", "174519.077500", "174520.082500", "174521.085000", "174522.090000", "174523.095000", "174524.097500", "174525.102500", "174526.105000", "174527.110000", "174528.115000", "174529.117500", "174530.122500", "174531.127500", "174532.130000", "174533.135000", "174534.137500", "174535.142500", "174536.147500", "174537.150000", "174538.155000", "174539.157500", "174540.162500", "174541.167500", "174542.170000", "174543.175000", "174544.177500", "174545.182500", "174546.187500", "174547.190000", "174548.195000", "174549.197500", "174550.202500", "174551.207500", "174552.210000", "174553.215000", "174554.217500", "174555.222500", "174556.227500", "174557.230000", "174558.235000", "174559.240000", "174600.242500", "174601.247500", "174602.250000", "174603.255000", "174604.260000", "174605.262500", "174606.267500", "174607.270000", "174608.275000", "174609.280000", "174610.282500", "174611.287500", "174612.290000", "174613.295000", "174614.300000", "174615.302500", "174616.307500", "174617.310000", "174618.315000", "174619.320000", "174620.322500", "174621.327500", "174622.330000", "174623.335000", "174624.340000", "174625.342500", "174626.347500", "174627.350000", "174628.355000", "174629.360000", "174630.362500", "174631.367500", "174632.372500", "174633.375000", "174634.380000", "174635.382500", "174636.387500", "174637.392500", "174638.395000", "174639.400000", "174640.402500", "174641.407500", "174642.412500", "174643.415000", "174644.420000", "174645.422500", "174646.427500", "174647.432500", "174648.435000", "174649.440000", "174650.442500", "174651.447500", "174652.452500", "174653.455000", "174654.460000", "174655.462500", "174656.467500", "174657.472500", "174658.475000", "174659.480000", "174700.482500", "174701.487500", "174702.492500", "174703.495000", "174704.500000", "174705.505000", "174706.507500", "174707.512500", "174708.515000", "174709.520000", "174710.525000", "174711.527500", "174712.532500", "174713.535000", "174714.540000", "174715.545000", "174716.547500", "174717.552500", "174718.555000", "174719.560000", "174720.565000", "174721.567500", "174722.572500", "174723.575000", "174724.580000", "174725.585000", "174726.587500", "174727.592500", "174728.595000", "174729.600000", "174730.605000", "174731.607500", "174732.612500", "174733.617500", "174734.620000", "174735.625000", "174736.627500", "174737.632500", "174738.637500", "174739.640000", "174740.645000", "174741.647500", "174742.652500", "174743.657500", "174744.660000", "174745.665000", "174746.667500", "174747.672500", "174748.677500", "174749.680000", "174750.685000", "174751.687500", "174752.692500", "174753.697500", "174754.700000", "174755.705000", "174756.707500", "174757.712500", "174758.717500", "174759.720000", "174800.725000", "174801.727500", "174802.732500", "174803.737500", "174804.740000", "174805.745000", "174806.750000", "174807.752500", "174808.757500", "174809.760000", "174810.765000", "174811.770000", "174812.772500", "174813.777500", "174814.780000", "174815.785000", "174816.790000", "174817.792500", "174818.797500", "174819.800000", "174820.805000", "174821.810000", "174822.812500", "174823.817500", "174824.820000", "174825.825000", "174826.830000", "174827.832500", "174828.837500", "174829.840000", "174830.845000", "174831.850000", "174832.852500", "174833.857500", "174834.860000", "174835.865000", "174836.870000", "174837.872500", "174838.877500", "174839.882500", "174840.885000", "174841.890000", "174842.892500", "174843.897500", "174844.902500", "174845.905000", "174846.910000", "174847.912500", "174848.917500", "174849.922500", "174850.925000", "174851.930000", "174852.932500", "174853.937500", "174854.942500", "174855.945000", "174856.950000", "174857.952500", "174858.957500", "174859.962500", "174900.965000", "174901.970000", "174902.972500", "174903.977500", "174904.982500", "174905.985000", "174906.990000", "174907.995000", "174908.997500", "174910.002500", "174911.005000", "174912.010000", "174913.015000", "174914.017500", "174915.022500", "174916.025000", "174917.030000", "174918.035000", "174919.037500", "174920.042500", "174921.045000", "174922.050000", "174923.055000", "174924.057500", "174925.062500", "174926.065000", "174927.070000", "174928.075000", "174929.077500", "174930.082500", "174931.085000", "174932.090000", "174933.095000", "174934.097500", "174935.102500", "174936.105000", "174937.110000", "174938.115000", "174939.117500", "174940.122500", "174941.127500", "174942.130000", "174943.135000", "174944.137500", "174945.142500", "174946.147500", "174947.150000", "174948.155000", "174949.157500", "174950.162500", "174951.167500", "174952.170000", "174953.175000", "174954.177500", "174955.182500", "174956.187500", "174957.190000", "174958.195000", "174959.197500", "175000.202500", "175001.207500", "175002.210000", "175003.215000", "175004.217500", "175005.222500", "175006.227500", "175007.230000", "175008.235000", "175009.240000", "175010.242500", "175011.247500", "175012.250000", "175013.255000", "175014.260000", "175015.262500", "175016.267500", "175017.270000", "175018.275000", "175019.280000", "175020.282500", "175021.287500", "175022.290000", "175023.295000", "175024.300000", "175025.302500", "175026.307500", "175027.310000", "175028.315000", "175029.320000", "175030.322500", "175031.327500", "175032.330000", "175033.335000", "175034.340000", "175035.342500", "175036.347500", "175037.350000", "175038.355000", "175039.360000", "175040.362500", "175041.367500", "175042.372500", "175043.375000", "175044.380000", "175045.382500", "175046.387500", "175047.392500", "175048.395000", "175049.400000", "175050.402500", "175051.407500", "175052.412500", "175053.415000", "175054.420000", "175055.422500", "175056.427500", "175057.432500", "175058.435000", "175059.440000", "175100.442500", "175101.447500", "175102.452500", "175103.455000", "175104.460000", "175105.462500", "175106.467500", "175107.472500", "175108.475000", "175109.480000", "175110.482500", "175111.487500", "175112.492500", "175113.495000", "175114.500000", "175115.505000", "175116.507500", "175117.512500", "175118.515000", "175119.520000", "175120.525000", "175121.527500", "175122.532500", "175123.535000", "175124.540000", "175125.545000", "175126.547500", "175127.552500", "175128.555000", "175129.560000", "175130.565000", "175131.567500", "175132.572500", "175133.575000", "175134.580000", "175135.585000", "175136.587500", "175137.592500", "175138.595000", "175139.600000", "175140.605000", "175141.607500", "175142.612500", "175143.617500", "175144.620000", "175145.625000", "175146.627500", "175147.632500", "175148.637500", "175149.640000", "175150.645000", "175151.647500", "175152.652500", "175153.657500", "175154.660000", "175155.665000", "175156.667500", "175157.672500", "175158.677500", "175159.680000", "175200.685000", "175201.687500", "175202.692500", "175203.697500", "175204.700000", "175205.705000", "175206.707500", "175207.712500", "175208.717500", "175209.720000", "175210.725000", "175211.727500", "175212.732500", "175213.737500", "175214.740000", "175215.745000", "175216.750000", "175217.752500", "175218.757500", "175219.760000", "175220.765000", "175221.770000", "175222.772500", "175223.777500", "175224.780000", "175225.785000", "175226.790000", "175227.792500", "175228.797500", "175229.800000", "175230.805000", "175231.810000", "175232.812500", "175233.817500", "175234.820000", "175235.825000", "175236.830000", "175237.832500", "175238.837500", "175239.840000", "175240.845000", "175241.850000", "175242.852500", "175243.857500", "175244.860000", "175245.865000", "175246.870000", "175247.872500", "175248.877500", "175249.882500", "175250.885000", "175251.890000", "175252.892500", "175253.897500", "175254.902500", "175255.905000", "175256.910000", "175257.912500", "175258.917500", "175259.922500", "175300.925000", "175301.930000", "175302.932500", "175303.937500", "175304.942500", "175305.945000", "175306.950000", "175307.952500", "175308.957500", "175309.962500", "175310.965000", "175311.970000", "175312.972500", "175313.977500", "175314.982500", "175315.985000", "175316.990000", "175317.995000", "175318.997500", "175320.002500", "175321.005000", "175322.010000", "175323.015000", "175324.017500", "175325.022500", "175326.025000", "175327.030000", "175328.035000", "175329.037500", "175330.042500", "175331.045000", "175332.050000", "175333.055000", "175334.057500", "175335.062500", "175336.065000", "175337.070000", "175338.075000", "175339.077500", "175340.082500", "175341.085000", "175342.090000", "175343.095000", "175344.097500", "175345.102500", "175346.105000", "175347.110000", "175348.115000", "175349.117500", "175350.122500", "175351.127500", "175352.130000", "175353.135000", "175354.137500", "175355.142500", "175356.147500", "175357.150000", "175358.155000", "175359.157500", "175400.162500", "175401.167500", "175402.170000", "175403.175000", "175404.177500", "175405.182500", "175406.187500", "175407.190000", "175408.195000", "175409.197500", "175410.202500", "175411.207500", "175412.210000", "175413.215000", "175414.217500", "175415.222500", "175416.227500", "175417.230000", "175418.235000", "175419.240000", "175420.242500", "175421.247500", "175422.250000", "175423.255000", "175424.260000", "175425.262500", "175426.267500", "175427.270000", "175428.275000", "175429.280000", "175430.282500", "175431.287500", "175432.290000", "175433.295000", "175434.300000", "175435.302500", "175436.307500", "175437.310000", "175438.315000", "175439.320000", "175440.322500", "175441.327500", "175442.330000", "175443.335000", "175444.340000", "175445.342500", "175446.347500", "175447.350000", "175448.355000", "175449.360000", "175450.362500", "175451.367500", "175452.372500", "175453.375000", "175454.380000", "175455.382500", "175456.387500", "175457.392500", "175458.395000", "175459.400000", "175500.402500", "175501.407500", "175502.412500", "175503.415000", "175504.420000", "175505.422500", "175506.427500", "175507.432500", "175508.435000", "175509.440