{
  "aor": 0.0031153333333333332,
  "aqi": 0.008325529786666667,
  "bids_meta": {
    "AcquisitionMatrixPE": 64,
    "AcquisitionNumber": 1,
    "AcquisitionTime": "17:34:25.030000",
    "BandwidthPerPixelPhaseEncode": 19.531,
    "BaseResolution": 64,
    "CogAtlasID": "TODO",
    "CoilString": "C:HEA;HEP",
    "ConversionSoftware": "dcm2niix",
    "ConversionSoftwareVersion": "v1.0.20190902",
    "DerivedVendorReportedEchoSpacing": 0.00080001,
    "DeviceSerialNumber": "26099",
    "DwellTime": 5.3e-06,
    "EchoTime": 0.0548,
    "EffectiveEchoSpacing": 0.00080001,
    "FlipAngle": 75,
    "ImageComments": "Unaliased_MB4_PE3_LB_SENSE1",
    "ImageOrientationPatientDICOM": [
      1,
      2e-16,
      0,
      -2e-16,
      0.982287,
      -0.187381
    ],
    "ImageType": [
      "ORIGINAL",
      "PRIMARY",
      "M",
      "MB",
      "ND",
      "MOSAIC"
    ],
    "ImagingFrequency": 63.6394,
    "InPlanePhaseEncodingDirectionDICOM": "COL",
    "InstitutionAddress": "Bedford_Way_26_London_London_GB_WC1H_0AP",
    "InstitutionName": "University_College",
    "InstitutionalDepartmentName": "Department",
    "MRAcquisitionType": "2D",
    "MagneticFieldStrength": 1.5,
    "Manufacturer": "Siemens",
    "ManufacturersModelName": "Avanto",
    "Modality": "MR",
    "MultibandAccelerationFactor": 4,
    "PartialFourier": 1,
    "PatientPosition": "HFS",
    "PercentPhaseFOV": 100,
    "PhaseEncodingDirection": "j-",
    "PhaseEncodingSteps": 64,
    "PhaseResolution": 1,
    "PixelBandwidth": 1474,
    "ProcedureStepDescription": "ucl_bbk_Jeremy",
    "ProtocolName": "EcL4-3.2m-40-1474-1s-55e",
    "PulseSequenceDetails": "%CustomerSeq%_cmrr_mbep2d_bold",
    "ReceiveCoilName": "32Ch_Head",
    "ReconMatrixPE": 64,
    "RepetitionTime": 1,
    "SAR": 0.0454337,
    "ScanOptions": "FS",
    "ScanningSequence": "EP",
    "SequenceName": "epfid2d1_64",
    "SequenceVariant": "SK_SS",
    "SeriesDescription": "EcL4-3.2m-40-1474-1s-55e",
    "SeriesNumber": 3,
    "ShimSetting": [
      139,
      -105,
      352,
      1098,
      -363,
      -103,
      363,
      -27
    ],
    "SliceThickness": 3.2,
    "SliceTiming": [
      0,
      0.7025,
      0.4,
      0.1,
      0.8025,
      0.5,
      0.2,
      0.9025,
      0.6,
      0.3,
      0,
      0.7025,
      0.4,
      0.1,
      0.8025,
      0.5,
      0.2,
      0.9025,
      0.6,
      0.3,
      0,
      0.7025,
      0.4,
      0.1,
      0.8025,
      0.5,
      0.2,
      0.9025,
      0.6,
      0.3,
      0,
      0.7025,
      0.4,
      0.1,
      0.8025,
      0.5,
      0.2,
      0.9025,
      0.6,
      0.3
    ],
    "SoftwareVersions": "syngo_MR_B17",
    "SpacingBetweenSlices": 3.2,
    "StationName": "MRC26099",
    "TaskName": "littlemisssunshine",
    "TotalReadoutTime": 0.0504006,
    "TxRefAmp": 211.996,
    "dataset": "<unset>",
    "dcmmeta_affine": [
      [
        -3.203125,
        -6.40624994052057e-16,
        1.1992403640300711e-16,
        102.5
      ],
      [
        -6.40624994052057e-16,
        3.1463887691497803,
        -0.5996202230453491,
        -85.36119842529297
      ],
      [
        0.0,
        0.6002057790756226,
        3.1433191299438477,
        -47.01974868774414
      ],
      [
        0.0,
        0.0,
        0.0,
        1.0
      ]
    ],
    "dcmmeta_reorient_transform": [
      [
        0.0,
        -1.0,
        0.0,
        63.0
      ],
      [
        1.0,
        0.0,
        0.0,
        0.0
      ],
      [
        0.0,
        0.0,
        1.0,
        0.0
      ],
      [
        0.0,
        0.0,
        0.0,
        1.0
      ]
    ],
    "dcmmeta_shape": [
      64,
      64,
      40,
      375
    ],
    "dcmmeta_slice_dim": 2,
    "dcmmeta_version": 0.6,
    "global": {
      "const": {
        "AcquisitionMatrix": [
          64,
          0,
          0,
          64
        ],
        "AngioFlag": "N",
        "BitsAllocated": 16,
        "BitsStored": 12,
        "Columns": 448,
        "EchoNumbers": 1,
        "EchoTime": 54.8,
        "EchoTrainLength": 1,
        "FlipAngle": 75.0,
        "HighBit": 11,
        "ImageOrientationPatient": [
          1.0,
          2e-16,
          0.0,
          -2e-16,
          0.98228725047307,
          -0.1873813159257
        ],
        "ImagePositionPatient": [
          -717.5,
          -716.96795730171,
          106.0327259516
        ],
        "ImageType": [
          "ORIGINAL",
          "PRIMARY",
          "M",
          "MB",
          "ND",
          "MOSAIC"
        ],
        "ImagedNucleus": "1H",
        "ImagingFrequency": 63.639394,
        "InPlanePhaseEncodingDirection": "COL",
        "MRAcquisitionType": "2D",
        "MagneticFieldStrength": 1.5,
        "Manufacturer": "SIEMENS",
        "ManufacturerModelName": "Avanto",
        "Modality": "MR",
        "NumberOfAverages": 1.0,
        "NumberOfPhaseEncodingSteps": 64,
        "PercentPhaseFieldOfView": 100.0,
        "PercentSampling": 100.0,
        "PerformedProcedureStepStartTime": "173151.406000",
        "PhotometricInterpretation": "MONOCHROME2",
        "PixelBandwidth": 1474.0,
        "PixelRepresentation": 0,
        "PixelSpacing": [
          3.203125,
          3.203125
        ],
        "ProtocolName": "EcL4-3.2m-40-1474-1s-55e",
        "RepetitionTime": 1000.0,
        "Rows": 448,
        "SAR": 0.04543371875073,
        "SamplesPerPixel": 1,
        "ScanOptions": "FS",
        "ScanningSequence": "EP",
        "SequenceName": "epfid2d1_64",
        "SequenceVariant": [
          "SK",
          "SS"
        ],
        "SeriesDescription": "EcL4-3.2m-40-1474-1s-55e",
        "SeriesNumber": 3,
        "SeriesTime": "173510.375000",
        "SliceLocation": -30.191804480601,
        "SliceThickness": 3.2000000476837,
        "SmallestImagePixelValue": 0,
        "SoftwareVersions": "syngo MR B17",
        "SpacingBetweenSlices": 3.199999948536,
        "SpecificCharacterSet": "ISO_IR 100",
        "StudyID": "1",
        "StudyTime": "173151.343000",
        "TransmitCoilName": "Body",
        "VariableFlipAngleFlag": "N",
        "WindowCenterWidthExplanation": "Algo1",
        "dBdt": 0.0
      },
      "slices": {}
    },
    "modality": "bold",
    "run_id": 1,
    "subject_id": "76",
    "task_id": "littlemisssunshine",
    "time": {
      "samples": {
        "AcquisitionNumber": [
          1,
          2,
          3,
          4,
          5,
          6,
          7,
          8,
          9,
          10,
          11,
          12,
          13,
          14,
          15,
          16,
          17,
          18,
          19,
          20,
          21,
          22,
          23,
          24,
          25,
          26,
          27,
          28,
          29,
          30,
          31,
          32,
          33,
          34,
          35,
          36,
          37,
          38,
          39,
          40,
          41,
          42,
          43,
          44,
          45,
          46,
          47,
          48,
          49,
          50,
          51,
          52,
          53,
          54,
          55,
          56,
          57,
          58,
          59,
          60,
          61,
          62,
          63,
          64,
          65,
          66,
          67,
          68,
          69,
          70,
          71,
          72,
          73,
          74,
          75,
          76,
          77,
          78,
          79,
          80,
          81,
          82,
          83,
          84,
          85,
          86,
          87,
          88,
          89,
          90,
          91,
          92,
          93,
          94,
          95,
          96,
          97,
          98,
          99,
          100,
          101,
          102,
          103,
          104,
          105,
          106,
          107,
          108,
          109,
          110,
          111,
          112,
          113,
          114,
          115,
          116,
          117,
          118,
          119,
          120,
          121,
          122,
          123,
          124,
          125,
          126,
          127,
          128,
          129,
          130,
          131,
          132,
          133,
          134,
          135,
          136,
          137,
          138,
          139,
          140,
          141,
          142,
          143,
          144,
          145,
          146,
          147,
          148,
          149,
          150,
          151,
          152,
          153,
          154,
          155,
          156,
          157,
          158,
          159,
          160,
          161,
          162,
          163,
          164,
          165,
          166,
          167,
          168,
          169,
          170,
          171,
          172,
          173,
          174,
          175,
          176,
          177,
          178,
          179,
          180,
          181,
          182,
          183,
          184,
          185,
          186,
          187,
          188,
          189,
          190,
          191,
          192,
          193,
          194,
          195,
          196,
          197,
          198,
          199,
          200,
          201,
          202,
          203,
          204,
          205,
          206,
          207,
          208,
          209,
          210,
          211,
          212,
          213,
          214,
          215,
          216,
          217,
          218,
          219,
          220,
          221,
          222,
          223,
          224,
          225,
          226,
          227,
          228,
          229,
          230,
          231,
          232,
          233,
          234,
          235,
          236,
          237,
          238,
          239,
          240,
          241,
          242,
          243,
          244,
          245,
          246,
          247,
          248,
          249,
          250,
          251,
          252,
          253,
          254,
          255,
          256,
          257,
          258,
          259,
          260,
          261,
          262,
          263,
          264,
          265,
          266,
          267,
          268,
          269,
          270,
          271,
          272,
          273,
          274,
          275,
          276,
          277,
          278,
          279,
          280,
          281,
          282,
          283,
          284,
          285,
          286,
          287,
          288,
          289,
          290,
          291,
          292,
          293,
          294,
          295,
          296,
          297,
          298,
          299,
          300,
          301,
          302,
          303,
          304,
          305,
          306,
          307,
          308,
          309,
          310,
          311,
          312,
          313,
          314,
          315,
          316,
          317,
          318,
          319,
          320,
          321,
          322,
          323,
          324,
          325,
          326,
          327,
          328,
          329,
          330,
          331,
          332,
          333,
          334,
          335,
          336,
          337,
          338,
          339,
          340,
          341,
          342,
          343,
          344,
          345,
          346,
          347,
          348,
          349,
          350,
          351,
          352,
          353,
          354,
          355,
          356,
          357,
          358,
          359,
          360,
          361,
          362,
          363,
          364,
          365,
          366,
          367,
          368,
          369,
          370,
          371,
          372,
          373,
          374,
          375
        ],
        "AcquisitionTime": [
          "173425.030000",
          "173426.032500",
          "173427.037500",
          "173428.040000",
          "173429.045000",
          "173430.050000",
          "173431.052500",
          "173432.057500",
          "173433.060000",
          "173434.065000",
          "173435.070000",
          "173436.072500",
          "173437.077500",
          "173438.080000",
          "173439.085000",
          "173440.090000",
          "173441.092500",
          "173442.097500",
          "173443.100000",
          "173444.105000",
          "173445.110000",
          "173446.112500",
          "173447.117500",
          "173448.120000",
          "173449.125000",
          "173450.130000",
          "173451.132500",
          "173452.137500",
          "173453.142500",
          "173454.145000",
          "173455.150000",
          "173456.152500",
          "173457.157500",
          "173458.162500",
          "173459.165000",
          "173500.170000",
          "173501.172500",
          "173502.177500",
          "173503.182500",
          "173504.185000",
          "173505.190000",
          "173506.192500",
          "173507.197500",
          "173508.202500",
          "173509.205000",
          "173510.210000",
          "173511.212500",
          "173512.217500",
          "173513.222500",
          "173514.225000",
          "173515.230000",
          "173516.232500",
          "173517.237500",
          "173518.242500",
          "173519.245000",
          "173520.250000",
          "173521.252500",
          "173522.257500",
          "173523.262500",
          "173524.265000",
          "173525.270000",
          "173526.275000",
          "173527.277500",
          "173528.282500",
          "173529.285000",
          "173530.290000",
          "173531.295000",
          "173532.297500",
          "173533.302500",
          "173534.305000",
          "173535.310000",
          "173536.315000",
          "173537.317500",
          "173538.322500",
          "173539.325000",
          "173540.330000",
          "173541.335000",
          "173542.337500",
          "173543.342500",
          "173544.345000",
          "173545.350000",
          "173546.355000",
          "173547.357500",
          "173548.362500",
          "173549.365000",
          "173550.370000",
          "173551.375000",
          "173552.377500",
          "173553.382500",
          "173554.387500",
          "173555.390000",
          "173556.395000",
          "173557.397500",
          "173558.402500",
          "173559.407500",
          "173600.410000",
          "173601.415000",
          "173602.417500",
          "173603.422500",
          "173604.427500",
          "173605.430000",
          "173606.435000",
          "173607.437500",
          "173608.442500",
          "173609.447500",
          "173610.450000",
          "173611.455000",
          "173612.457500",
          "173613.462500",
          "173614.467500",
          "173615.470000",
          "173616.475000",
          "173617.477500",
          "173618.482500",
          "173619.487500",
          "173620.490000",
          "173621.495000",
          "173622.497500",
          "173623.502500",
          "173624.507500",
          "173625.510000",
          "173626.515000",
          "173627.520000",
          "173628.522500",
          "173629.527500",
          "173630.530000",
          "173631.535000",
          "173632.540000",
          "173633.542500",
          "173634.547500",
          "173635.550000",
          "173636.555000",
          "173637.560000",
          "173638.562500",
          "173639.567500",
          "173640.570000",
          "173641.575000",
          "173642.580000",
          "173643.582500",
          "173644.587500",
          "173645.590000",
          "173646.595000",
          "173647.600000",
          "173648.602500",
          "173649.607500",
          "173650.610000",
          "173651.615000",
          "173652.620000",
          "173653.622500",
          "173654.627500",
          "173655.630000",
          "173656.635000",
          "173657.640000",
          "173658.642500",
          "173659.647500",
          "173700.652500",
          "173701.655000",
          "173702.660000",
          "173703.662500",
          "173704.667500",
          "173705.672500",
          "173706.675000",
          "173707.680000",
          "173708.682500",
          "173709.687500",
          "173710.692500",
          "173711.695000",
          "173712.700000",
          "173713.702500",
          "173714.707500",
          "173715.712500",
          "173716.715000",
          "173717.720000",
          "173718.722500",
          "173719.727500",
          "173720.732500",
          "173721.735000",
          "173722.740000",
          "173723.742500",
          "173724.747500",
          "173725.752500",
          "173726.755000",
          "173727.760000",
          "173728.765000",
          "173729.767500",
          "173730.772500",
          "173731.775000",
          "173732.780000",
          "173733.785000",
          "173734.787500",
          "173735.792500",
          "173736.795000",
          "173737.800000",
          "173738.805000",
          "173739.807500",
          "173740.812500",
          "173741.815000",
          "173742.820000",
          "173743.825000",
          "173744.827500",
          "173745.832500",
          "173746.835000",
          "173747.840000",
          "173748.845000",
          "173749.847500",
          "173750.852500",
          "173751.855000",
          "173752.860000",
          "173753.865000",
          "173754.867500",
          "173755.872500",
          "173756.875000",
          "173757.880000",
          "173758.885000",
          "173759.887500",
          "173800.892500",
          "173801.897500",
          "173802.900000",
          "173803.905000",
          "173804.907500",
          "173805.912500",
          "173806.917500",
          "173807.920000",
          "173808.925000",
          "173809.927500",
          "173810.932500",
          "173811.937500",
          "173812.940000",
          "173813.945000",
          "173814.947500",
          "173815.952500",
          "173816.957500",
          "173817.960000",
          "173818.965000",
          "173819.967500",
          "173820.972500",
          "173821.977500",
          "173822.980000",
          "173823.985000",
          "173824.987500",
          "173825.992500",
          "173826.997500",
          "173828.000000",
          "173829.005000",
          "173830.010000",
          "173831.012500",
          "173832.017500",
          "173833.020000",
          "173834.025000",
          "173835.030000",
          "173836.032500",
          "173837.037500",
          "173838.040000",
          "173839.045000",
          "173840.050000",
          "173841.052500",
          "173842.057500",
          "173843.060000",
          "173844.065000",
          "173845.070000",
          "173846.072500",
          "173847.077500",
          "173848.080000",
          "173849.085000",
          "173850.090000",
          "173851.092500",
          "173852.097500",
          "173853.100000",
          "173854.105000",
          "173855.110000",
          "173856.112500",
          "173857.117500",
          "173858.120000",
          "173859.125000",
          "173900.130000",
          "173901.132500",
          "173902.137500",
          "173903.142500",
          "173904.145000",
          "173905.150000",
          "173906.152500",
          "173907.157500",
          "173908.162500",
          "173909.165000",
          "173910.170000",
          "173911.172500",
          "173912.177500",
          "173913.182500",
          "173914.185000",
          "173915.190000",
          "173916.192500",
          "173917.197500",
          "173918.202500",
          "173919.205000",
          "173920.210000",
          "173921.212500",
          "173922.217500",
          "173923.222500",
          "173924.225000",
          "173925.230000",
          "173926.232500",
          "173927.237500",
          "173928.242500",
          "173929.245000",
          "173930.250000",
          "173931.252500",
          "173932.257500",
          "173933.262500",
          "173934.265000",
          "173935.270000",
          "173936.275000",
          "173937.277500",
          "173938.282500",
          "173939.285000",
          "173940.290000",
          "173941.295000",
          "173942.297500",
          "173943.302500",
          "173944.305000",
          "173945.310000",
          "173946.315000",
          "173947.317500",
          "173948.322500",
          "173949.325000",
          "173950.330000",
          "173951.335000",
          "173952.337500",
          "173953.342500",
          "173954.345000",
          "173955.350000",
          "173956.355000",
          "173957.357500",
          "173958.362500",
          "173959.365000",
          "174000.370000",
          "174001.375000",
          "174002.377500",
          "174003.382500",
          "174004.387500",
          "174005.390000",
          "174006.395000",
          "174007.397500",
          "174008.402500",
          "174009.407500",
          "174010.410000",
          "174011.415000",
          "174012.417500",
          "174013.422500",
          "174014.427500",
          "174015.430000",
          "174016.435000",
          "174017.437500",
          "174018.442500",
          "174019.447500",
          "174020.450000",
          "174021.455000",
          "174022.457500",
          "174023.462500",
          "174024.467500",
          "174025.470000",
          "174026.475000",
          "174027.477500",
          "174028.482500",
          "174029.487500",
          "174030.490000",
          "174031.495000",
          "174032.497500",
          "174033.502500",
          "174034.507500",
          "174035.510000",
          "174036.515000",
          "174037.520000",
          "174038.522500",
          "174039.527500",
          "174040.530000"
        ],
        "ContentTime": [
          "173510.375000",
          "173510.375000",
          "173510.375000",
          "173510.375000",
          "173510.390000",
          "173510.390000",
          "173510.390000",
          "173510.406000",
          "173510.406000",
          "173510.406000",
          "173510.406000",
          "173510.406000",
          "173510.406000",
          "173510.421000",
          "173510.421000",
          "173510.421000",
          "173510.421000",
          "173510.421000",
          "173510.421000",
          "173510.437000",
          "173510.437000",
          "173510.437000",
          "173510.437000",
          "173510.437000",
          "173510.437000",
          "173510.437000",
          "173510.453000",
          "173510.453000",
          "173510.453000",
          "173510.453000",
          "173510.453000",
          "173510.453000",
          "173510.468000",
          "173510.468000",
          "173510.468000",
          "173510.468000",
          "173530.343000",
          "173530.343000",
          "173530.343000",
          "173530.343000",
          "173530.343000",
          "173530.343000",
          "173530.359000",
          "173530.359000",
          "173530.375000",
          "173530.375000",
          "173530.375000",
          "173530.375000",
          "173530.375000",
          "173530.390000",
          "173530.390000",
          "173530.390000",
          "173530.390000",
          "173530.406000",
          "173530.406000",
          "173530.406000",
          "173530.406000",
          "173530.406000",
          "173530.406000",
          "173530.406000",
          "173530.421000",
          "173530.421000",
          "173550.343000",
          "173550.343000",
          "173550.359000",
          "173550.359000",
          "173550.359000",
          "173550.359000",
          "173550.359000",
          "173550.359000",
          "173550.375000",
          "173550.375000",
          "173550.375000",
          "173550.375000",
          "173550.375000",
          "173550.375000",
          "173550.375000",
          "173550.390000",
          "173550.390000",
          "173550.390000",
          "173550.390000",
          "173550.390000",
          "173550.390000",
          "173550.390000",
          "173610.343000",
          "173610.343000",
          "173610.343000",
          "173610.343000",
          "173610.343000",
          "173610.343000",
          "173610.359000",
          "173610.359000",
          "173610.359000",
          "173610.359000",
          "173610.359000",
          "173610.359000",
          "173610.375000",
          "173610.375000",
          "173610.375000",
          "173610.375000",
          "173610.375000",
          "173610.375000",
          "173610.375000",
          "173610.390000",
          "173630.343000",
          "173630.343000",
          "173630.343000",
          "173630.343000",
          "173630.343000",
          "173630.343000",
          "173630.359000",
          "173630.359000",
          "173630.359000",
          "173630.359000",
          "173630.359000",
          "173630.359000",
          "173630.375000",
          "173630.375000",
          "173630.375000",
          "173630.375000",
          "173630.375000",
          "173630.375000",
          "173630.390000",
          "173630.390000",
          "173650.343000",
          "173650.343000",
          "173650.343000",
          "173650.343000",
          "173650.343000",
          "173650.343000",
          "173650.359000",
          "173650.359000",
          "173650.359000",
          "173650.359000",
          "173650.359000",
          "173650.359000",
          "173650.375000",
          "173650.375000",
          "173650.375000",
          "173650.375000",
          "173650.375000",
          "173650.390000",
          "173650.390000",
          "173650.390000",
          "173710.343000",
          "173710.343000",
          "173710.343000",
          "173710.343000",
          "173710.343000",
          "173710.343000",
          "173710.359000",
          "173710.359000",
          "173710.359000",
          "173710.359000",
          "173710.375000",
          "173710.375000",
          "173710.375000",
          "173710.375000",
          "173710.375000",
          "173710.375000",
          "173710.375000",
          "173710.390000",
          "173710.390000",
          "173710.390000",
          "173730.343000",
          "173730.343000",
          "173730.343000",
          "173730.359000",
          "173730.359000",
          "173730.375000",
          "173730.375000",
          "173730.375000",
          "173730.375000",
          "173730.375000",
          "173730.390000",
          "173730.390000",
          "173730.390000",
          "173730.390000",
          "173730.390000",
          "173730.390000",
          "173730.406000",
          "173730.406000",
          "173730.406000",
          "173730.406000",
          "173750.343000",
          "173750.343000",
          "173750.343000",
          "173750.343000",
          "173750.343000",
          "173750.359000",
          "173750.359000",
          "173750.359000",
          "173750.359000",
          "173750.375000",
          "173750.375000",
          "173750.375000",
          "173750.375000",
          "173750.375000",
          "173750.375000",
          "173750.390000",
          "173750.390000",
          "173750.390000",
          "173750.390000",
          "173750.390000",
          "173810.343000",
          "173810.343000",
          "173810.343000",
          "173810.343000",
          "173810.343000",
          "173810.343000",
          "173810.359000",
          "173810.359000",
          "173810.359000",
          "173810.359000",
          "173810.359000",
          "173810.359000",
          "173810.375000",
          "173810.375000",
          "173810.375000",
          "173810.390000",
          "173810.390000",
          "173810.390000",
          "173810.390000",
          "173810.390000",
          "173830.343000",
          "173830.343000",
          "173830.343000",
          "173830.343000",
          "173830.343000",
          "173830.359000",
          "173830.359000",
          "173830.359000",
          "173830.359000",
          "173830.359000",
          "173830.359000",
          "173830.375000",
          "173830.375000",
          "173830.375000",
          "173830.375000",
          "173830.375000",
          "173830.375000",
          "173830.375000",
          "173830.390000",
          "173830.390000",
          "173850.343000",
          "173850.343000",
          "173850.343000",
          "173850.343000",
          "173850.343000",
          "173850.343000",
          "173850.359000",
          "173850.359000",
          "173850.359000",
          "173850.359000",
          "173850.359000",
          "173850.359000",
          "173850.375000",
          "173850.375000",
          "173850.375000",
          "173850.375000",
          "173850.375000",
          "173850.375000",
          "173850.375000",
          "173850.390000",
          "173910.343000",
          "173910.343000",
          "173910.343000",
          "173910.343000",
          "173910.343000",
          "173910.343000",
          "173910.359000",
          "173910.359000",
          "173910.359000",
          "173910.359000",
          "173910.359000",
          "173910.359000",
          "173910.375000",
          "173910.375000",
          "173910.375000",
          "173910.375000",
          "173910.375000",
          "173910.375000",
          "173910.390000",
          "173910.390000",
          "173930.343000",
          "173930.343000",
          "173930.343000",
          "173930.343000",
          "173930.343000",
          "173930.359000",
          "173930.359000",
          "173930.359000",
